0 -0.0000001 -0.0000002 -0.0000003 -0.0000004 -0.0000005 -0.0000006 -0.0000007 -0.0000008 -0.0000009 -0.00000010 -0.00000011 -0.00000012 -0.00000013 0.00000014 0.00000015 0.00000016 0.00000017 0.00000118 0.00000119 0.00000120 0.00000121 0.00000222 0.00000223 0.00000224 0.00000225 0.00000226 0.00000227 0.00000228 0.00000229 0.00000230 0.00000231 0.00000232 0.00000233 0.00000334 0.00000335 0.00000336 0.00000337 0.00000438 0.00000439 0.00000540 0.00000541 0.00000642 0.00000643 0.00000644 0.00000745 0.00000746 0.00000747 0.00000748 0.00000749 0.00000750 0.00000751 0.00000752 0.00000853 0.00000854 0.00000855 0.00000956 0.00000957 0.00001058 0.00001059 0.00001160 0.00001261 0.00001262 0.00001363 0.00001364 0.00001365 0.00001466 0.00001467 0.00001468 0.00001469 0.00001570 0.00001571 0.00001572 0.00001573 0.00001674 0.00001675 0.00001776 0.00001877 0.00001878 0.00001979 0.00002080 0.00002081 0.00002182 0.00002183 0.00002284 0.00002285 0.00002386 0.00002387 0.00002488 0.00002489 0.00002490 0.00002591 0.00002592 0.00002693 0.00002794 0.00002795 0.00002896 0.00002997 0.00002998 0.00003099 0.000031100 0.000031101 0.000032102 0.000032103 0.000033104 0.000033105 0.000034106 0.000034107 0.000035108 0.000036109 0.000036110 0.000037111 0.000038112 0.000038113 0.000039114 0.000040115 0.000041116 0.000041117 0.000042118 0.000043119 0.000043120 0.000044121 0.000044122 0.000045123 0.000045124 0.000046125 0.000046126 0.000047127 0.000048128 0.000049129 0.000050130 0.000050131 0.000051132 0.000052133 0.000053134 0.000054135 0.000055136 0.000055137 0.000056138 0.000056139 0.000057140 0.000057141 0.000058142 0.000058143 0.000059144 0.000059145 0.000060146 0.000061147 0.000062148 0.000063149 0.000064150 0.000065151 0.000066152 0.000067153 0.000068154 0.000068155 0.000069156 0.000070157 0.000070158 0.000071159 0.000071160 0.000071161 0.000072162 0.000072163 0.000073164 0.000074165 0.000074166 0.000075167 0.000076168 0.000077169 0.000078170 0.000079171 0.000080172 0.000081173 0.000081174 0.000082175 0.000083176 0.000083177 0.000084178 0.000084179 0.000085180 0.000085181 0.000086182 0.000086183 0.000087184 0.000087185 0.000088186 0.000089187 0.000090188 0.000090189 0.000091190 0.000092191 0.000093192 0.000093193 0.000094194 0.000094195 0.000095196 0.000096197 0.000096198 0.000097199 0.000097200 0.000098201 0.000098202 0.000099203 0.000099204 0.000100205 0.000100206 0.000101207 0.000101208 0.000102209 0.000102210 0.000103211 0.000103212 0.000104213 0.000104214 0.000104215 0.000105216 0.000105217 0.000106218 0.000107219 0.000107220 0.000108221 0.000108222 0.000109223 0.000109224 0.000110225 0.000110226 0.000110227 0.000111228 0.000111229 0.000111230 0.000111231 0.000111232 0.000111233 0.000111234 0.000112235 0.000112236 0.000112237 0.000113238 0.000114239 0.000114240 0.000115241 0.000115242 0.000116243 0.000116244 0.000116245 0.000116246 0.000116247 0.000116248 0.000116249 0.000116250 0.000115251 0.000115252 0.000115253 0.000115254 0.000115255 0.000115256 0.000116257 0.000116258 0.000117259 0.000117260 0.000117261 0.000118262 0.000118263 0.000118264 0.000118265 0.000118266 0.000117267 0.000117268 0.000116269 0.000116270 0.000116271 0.000115272 0.000115273 0.000115274 0.000114275 0.000114276 0.000115277 0.000115278 0.000115279 0.000115280 0.000115281 0.000115282 0.000115283 0.000114284 0.000114285 0.000113286 0.000113287 0.000112288 0.000112289 0.000111290 0.000110291 0.000110292 0.000109293 0.000109294 0.000109295 0.000108296 0.000108297 0.000108298 0.000107299 0.000107300 0.000106301 0.000106302 0.000105303 0.000104304 0.000103305 0.000103306 0.000102307 0.000101308 0.000100309 0.000100310 0.000099311 0.000098312 0.000098313 0.000097314 0.000097315 0.000096316 0.000095317 0.000094318 0.000093319 0.000092320 0.000091321 0.000089322 0.000088323 0.000087324 0.000086325 0.000085326 0.000084327 0.000083328 0.000082329 0.000082330 0.000081331 0.000080332 0.000079333 0.000079334 0.000078335 0.000076336 0.000075337 0.000073338 0.000072339 0.000070340 0.000068341 0.000066342 0.000064343 0.000063344 0.000061345 0.000060346 0.000059347 0.000058348 0.000057349 0.000056350 0.000055351 0.000055352 0.000054353 0.000052354 0.000051355 0.000049356 0.000047357 0.000045358 0.000043359 0.000041360 0.000039361 0.000036362 0.000034363 0.000032364 0.000031365 0.000029366 0.000028367 0.000027368 0.000026369 0.000024370 0.000023371 0.000022372 0.000021373 0.000019374 0.000018375 0.000016376 0.000014377 0.000011378 0.000009379 0.000006380 0.000004381 0.000001382 -0.000001383 -0.000003384 -0.000005385 -0.000007386 -0.000009387 -0.000011388 -0.000012389 -0.000014390 -0.000016391 -0.000017392 -0.000019393 -0.000021394 -0.000023395 -0.000026396 -0.000028397 -0.000030398 -0.000033399 -0.000035400 -0.000037401 -0.000040402 -0.000042403 -0.000044404 -0.000047405 -0.000049406 -0.000051407 -0.000054408 -0.000057409 -0.000059410 -0.000062411 -0.000065412 -0.000067413 -0.000070414 -0.000072415 -0.000075416 -0.000077417 -0.000079418 -0.000081419 -0.000083420 -0.000085421 -0.000087422 -0.000089423 -0.000091424 -0.000094425 -0.000097426 -0.000100427 -0.000103428 -0.000107429 -0.000111430 -0.000115431 -0.000118432 -0.000122433 -0.000125434 -0.000128435 -0.000130436 -0.000132437 -0.000134438 -0.000135439 -0.000136440 -0.000138441 -0.000139442 -0.000141443 -0.000143444 -0.000146445 -0.000150446 -0.000154447 -0.000158448 -0.000163449 -0.000168450 -0.000173451 -0.000178452 -0.000182453 -0.000186454 -0.000189455 -0.000191456 -0.000192457 -0.000193458 -0.000194459 -0.000195460 -0.000195461 -0.000196462 -0.000198463 -0.000200464 -0.000204465 -0.000208466 -0.000213467 -0.000218468 -0.000224469 -0.000230470 -0.000236471 -0.000242472 -0.000246473 -0.000250474 -0.000253475 -0.000255476 -0.000256477 -0.000257478 -0.000257479 -0.000257480 -0.000257481 -0.000258482 -0.000259483 -0.000262484 -0.000266485 -0.000271486 -0.000276487 -0.000283488 -0.000289489 -0.000296490 -0.000303491 -0.000309492 -0.000314493 -0.000317494 -0.000320495 -0.000322496 -0.000322497 -0.000322498 -0.000322499 -0.000322500 -0.000322501 -0.000382502 -0.000481503 -0.000575504 -0.000610505 -0.000529506 -0.000283507 0.000157508 0.000796509 0.001605510 0.002527511 0.003477512 0.004353513 0.005050514 0.005474515 0.005555516 0.005259517 0.004599518 0.003636519 0.002473520 0.001250521 0.000129522 -0.000725523 -0.001161524 -0.001060525 -0.000352526 0.000969527 0.002843528 0.005149529 0.007710530 0.010312531 0.012725532 0.014731533 0.016145534 0.016841535 0.016762536 0.015938537 0.014480538 0.012574539 0.010462540 0.008420541 0.006724542 0.005628543 0.005330544 0.005949545 0.007512546 0.009950547 0.013096548 0.016710549 0.020499550 0.024146551 0.027348552 0.029843553 0.031445554 0.032061555 0.031702556 0.030487557 0.028624558 0.026397559 0.024131560 0.022158561 0.020781562 0.020241563 0.020690564 0.022177565 0.024640566 0.027911567 0.031741568 0.035821569 0.039821570 0.043423571 0.046361572 0.048445573 0.049583574 0.049790575 0.049182576 0.047968577 0.046418578 0.044840579 0.043537580 0.042776581 0.042761582 0.043606583 0.045330584 0.047848585 0.050986586 0.054509587 0.058142588 0.061607589 0.064654590 0.067091591 0.068804592 0.069770593 0.070058594 0.069822595 0.069277596 0.068675597 0.068268598 0.068282599 0.068886600 0.070176601 0.072158602 0.074755603 0.077807604 0.081102605 0.084395606 0.087444607 0.090039608 0.092029609 0.093340610 0.093985611 0.094066612 0.093761613 0.093300614 0.092943615 0.092942616 0.093516617 0.094815618 0.096905619 0.099755620 0.103239621 0.107148622 0.111217623 0.115152624 0.118666625 0.121514626 0.123524627 0.124618628 0.124828629 0.124292630 0.123238631 0.121964632 0.120802633 0.120079634 0.120081635 0.121020636 0.123008637 0.126041638 0.129997639 0.134648640 0.139685641 0.144748642 0.149469643 0.153513644 0.156614645 0.158606646 0.159445647 0.159212648 0.158105649 0.156418650 0.154510651 0.152767652 0.151560653 0.151202654 0.151916655 0.153807656 0.156855657 0.160915658 0.165732659 0.170974660 0.176262661 0.181217662 0.185498663 0.188839664 0.191080665 0.192183666 0.192233667 0.191425668 0.190043669 0.188424670 0.186921671 0.185864672 0.185527673 0.186093674 0.187645675 0.190150676 0.193473677 0.197395678 0.201637679 0.205895680 0.209880681 0.213344682 0.216112683 0.218095684 0.219299685 0.219817686 0.219816687 0.219512688 0.219143689 0.218934690 0.219077691 0.219700692 0.220864693 0.222550694 0.224672695 0.227090696 0.229628697 0.232106698 0.234361699 0.236272700 0.237769701 0.238851702 0.239576703 0.240060704 0.240459705 0.240942706 0.241668707 0.242765708 0.244304709 0.246288710 0.248650711 0.251255712 0.253918713 0.256427714 0.258569715 0.260162716 0.261077717 0.261265718 0.260762719 0.259698720 0.258284721 0.256788722 0.255508723 0.254738724 0.254725725 0.255643726 0.257563727 0.260443728 0.264120729 0.268327730 0.272721731 0.276913732 0.280515733 0.283184734 0.284662735 0.284807736 0.283619737 0.281241738 0.277951739 0.274138740 0.270258741 0.266787742 0.264173743 0.262784744 0.262860745 0.264488746 0.267585747 0.271904748 0.277055749 0.282549750 0.287844751 0.292410752 0.295782753 0.297615754 0.297721755 0.296092756 0.292905757 0.288501758 0.283350759 0.278004760 0.273036761 0.268974762 0.266249763 0.265146764 0.265771765 0.268038766 0.271682767 0.276286768 0.281328769 0.286241770 0.290469771 0.293537772 0.295097773 0.294967774 0.293153775 0.289841776 0.285372777 0.280209778 0.274876779 0.269901780 0.265760781 0.262815782 0.261283783 0.261206784 0.262458785 0.264760786 0.267715787 0.270857788 0.273706789 0.275827790 0.276882791 0.276664792 0.275122793 0.272364794 0.268639795 0.264306796 0.259786797 0.255510798 0.251860799 0.249129800 0.247478801 0.246920802 0.247318803 0.248404804 0.249809805 0.251117806 0.251915807 0.251851808 0.250673809 0.248274810 0.244700811 0.240154812 0.234970813 0.229574814 0.224436815 0.220001816 0.216640817 0.214593818 0.213936819 0.214566820 0.216203821 0.218422822 0.220698823 0.222466824 0.223191825 0.222434826 0.219905827 0.215511828 0.209369829 0.201805830 0.193320831 0.184541832 0.176155833 0.168825834 0.163118835 0.159432836 0.157950837 0.158605838 0.161081839 0.164844840 0.169191841 0.173325842 0.176450843 0.177850844 0.176976845 0.173513846 0.167417847 0.158925848 0.148538849 0.136965850 0.125054851 0.113697852 0.103737853 0.095879854 0.090602855 0.088110856 0.088310857 0.090816858 0.094988859 0.100003860 0.104935861 0.108866862 0.110974863 0.110633864 0.107470865 0.101411866 0.092683867 0.081790868 0.069457869 0.056551870 0.043983871 0.032608872 0.023136873 0.016054874 0.011579875 0.009639876 0.009888877 0.011752878 0.014494879 0.017303880 0.019388881 0.020070882 0.018847883 0.015449884 0.009859885 0.002302886 -0.006790887 -0.016837888 -0.027191889 -0.037211890 -0.046344891 -0.054189892 -0.060541893 -0.065403894 -0.068981895 -0.071646896 -0.073875897 -0.076185898 -0.079054899 -0.082852900 -0.087796901 -0.093915902 -0.101047903 -0.108861904 -0.116906905 -0.124675906 -0.131685907 -0.137551908 -0.142054909 -0.145187910 -0.147165911 -0.148417912 -0.149538913 -0.151221914 -0.154169915 -0.158997916 -0.166137917 -0.175768918 -0.187763919 -0.201681920 -0.216793921 -0.232149922 -0.246677923 -0.259302924 -0.269077925 -0.275314926 -0.277682927 -0.276279928 -0.271651929 -0.264764930 -0.256924931 -0.249653932 -0.244525933 -0.242991934 -0.246213935 -0.254907936 -0.269234937 -0.288752938 -0.312422939 -0.338692940 -0.365636941 -0.391146942 -0.413154943 -0.429858944 -0.439933945 -0.442696946 -0.438222947 -0.427362948 -0.411692949 -0.393380950 -0.374975951 -0.359151952 -0.348433953 -0.344913954 -0.350014955 -0.364312956 -0.387437957 -0.418084958 -0.454111959 -0.492738960 -0.530816961 -0.565147962 -0.592816963 -0.611514964 -0.619793965 -0.617251966 -0.604604967 -0.583642968 -0.557074969 -0.528270970 -0.500927971 -0.478691972 -0.464772973 -0.461604974 -0.470566975 -0.491818976 -0.524252977 -0.565579978 -0.612546979 -0.661246980 -0.707514981 -0.747354982 -0.777361983 -0.795080984 -0.799283985 -0.790117986 -0.769113987 -0.739053988 -0.703697989 -0.667413990 -0.634729991 -0.609871992 -0.596317993 -0.596427994 -0.611181995 -0.640064996 -0.681098997 -0.731031998 -0.785659999 -0.8402501000 1.0939701001 1.0573191002 0.9732151003 0.9118051004 0.8617421005 0.8180951006 0.7864431007 0.7631091008 0.7675341009 0.7787451010 0.8158651011 0.8746221012 0.9237901013 0.9375351014 0.9756041015 0.9953621016 0.9756581017 0.9325311018 0.8948001019 0.8635601020 0.8636611021 0.8512031022 0.8091071023 0.7708091024 0.7481121025 0.7352051026 0.7368461027 0.7127011028 0.7097961029 0.7470321030 0.7797181031 0.7800561032 0.7935361033 0.7911961034 0.8057211035 0.8113681036 0.8077281037 0.7793481038 0.7432551039 0.7404311040 0.7192901041 0.6792211042 0.6422411043 0.6207841044 0.5936661045 0.5942131046 0.6065461047 0.6139921048 0.6315781049 0.6425511050 0.6588751051 0.6936511052 0.7294151053 0.7382881054 0.7419511055 0.7674601056 0.7829211057 0.7890471058 0.7586651059 0.7162101060 0.6772551061 0.6641501062 0.6177731063 0.5694511064 0.5570411065 0.5571601066 0.5655531067 0.5695481068 0.6005441069 0.6225031070 0.6483631071 0.6203591072 0.6101991073 0.6150851074 0.6295791075 0.6173181076 0.5986311077 0.5740731078 0.5359511079 0.5398671080 0.5323441081 0.4785701082 0.4342781083 0.4497901084 0.4821951085 0.4876741086 0.4738971087 0.4684921088 0.4674951089 0.4637701090 0.4713271091 0.4815271092 0.4911381093 0.4702431094 0.4140181095 0.3823851096 0.3676031097 0.3738171098 0.3806221099 0.3706991100 0.3575351101 0.3692811102 0.3847431103 0.4055181104 0.4402541105 0.4530031106 0.4316401107 0.4242891108 0.4237231109 0.4316981110 0.4311711111 0.4264041112 0.4349231113 0.4193531114 0.4071341115 0.3701631116 0.3403881117 0.3173981118 0.3080631119 0.3182411120 0.3285991121 0.3345581122 0.3223601123 0.3332611124 0.3598221125 0.3822651126 0.3928591127 0.3683041128 0.3220571129 0.2925861130 0.2755081131 0.2516211132 0.2508081133 0.2478331134 0.2540541135 0.2410801136 0.2243991137 0.2350371138 0.2272591139 0.2183501140 0.2445011141 0.2648041142 0.2613561143 0.2594601144 0.2439071145 0.2192961146 0.1823781147 0.1743721148 0.1892331149 0.1778451150 0.1761101151 0.1689511152 0.1382041153 0.1064251154 0.1246261155 0.1319821156 0.1115121157 0.1057971158 0.0927301159 0.0973471160 0.1077381161 0.1350561162 0.1576081163 0.1890351164 0.1665431165 0.1311821166 0.1041241167 0.0789351168 0.0738031169 0.0796941170 0.0844461171 0.0807681172 0.0781631173 0.0547741174 0.0571751175 0.0761211176 0.0742861177 0.0980151178 0.1011061179 0.1206511180 0.1249401181 0.1134451182 0.0768761183 0.0653101184 0.0603781185 0.0474861186 0.0240601187 0.0077831188 0.0248081189 0.0299291190 0.0586831191 0.0793921192 0.0971281193 0.1216121194 0.1310501195 0.1399301196 0.1187881197 0.0899751198 0.0354391199 0.0125441200 0.0299471201 0.0635321202 0.0644241203 0.0670641204 0.0813551205 0.0728511206 0.0589911207 0.0533301208 0.0697721209 0.0627641210 0.0514481211 0.0597451212 0.0763721213 0.0587761214 0.0530131215 0.0535511216 0.0750421217 0.1160771218 0.1309361219 0.1293701220 0.1364251221 0.1283381222 0.1244971223 0.1434951224 0.1432531225 0.1452091226 0.1505641227 0.1605391228 0.1766521229 0.1769581230 0.1722431231 0.1581541232 0.1432501233 0.1169551234 0.1294411235 0.1434211236 0.1419001237 0.1478781238 0.1600591239 0.1845801240 0.2067921241 0.2031101242 0.1689611243 0.1548251244 0.1143641245 0.0886461246 0.1064251247 0.1164551248 0.1238121249 0.1341941250 0.1541561251 0.1592711252 0.1541871253 0.1485791254 0.1490001255 0.1426391256 0.1370141257 0.1516271258 0.1496121259 0.1454151260 0.1365401261 0.1233801262 0.0931641263 0.0640111264 0.0491071265 0.0449711266 0.0477911267 0.0218041268 0.0116781269 0.0308481270 0.0497901271 0.0361901272 0.0269891273 -0.0196901274 -0.0687411275 -0.0723741276 -0.0784861277 -0.0950691278 -0.1186161279 -0.1464831280 -0.1571631281 -0.1464541282 -0.1114951283 -0.0786701284 -0.0793801285 -0.0897191286 -0.0900671287 -0.0646531288 -0.0571241289 -0.0701791290 -0.0892811291 -0.0865011292 -0.0804921293 -0.0926131294 -0.1151781295 -0.1278181296 -0.1339111297 -0.1290441298 -0.1254581299 -0.1204291300 -0.1245551301 -0.1379031302 -0.1380181303 -0.1037771304 -0.0991161305 -0.1006421306 -0.0851791307 -0.0652841308 -0.0567961309 -0.0384401310 -0.0195561311 -0.0079491312 -0.0179051313 -0.0463501314 -0.0891451315 -0.1174951316 -0.1304251317 -0.1512721318 -0.1841541319 -0.1863531320 -0.1725971321 -0.1791911322 -0.1879871323 -0.2062161324 -0.2101621325 -0.2087431326 -0.2150291327 -0.2337341328 -0.2207571329 -0.1867891330 -0.1730461331 -0.1591441332 -0.1511351333 -0.1297011334 -0.1144751335 -0.1324801336 -0.1346131337 -0.0881501338 -0.0532101339 0.0208591340 0.1072231341 0.1734481342 0.2215441343 0.2961631344 0.3689301345 0.4028791346 0.4329351347 0.4704201348 0.5355011349 0.6535691350 0.7554921351 0.8337171352 0.8942211353 0.9723101354 1.0802941355 1.1430581356 1.1415871357 1.1284771358 1.1434861359 1.1531741360 1.1186601361 1.0715191362 0.9938391363 0.9024091364 0.7930481365 0.7130091366 0.6214541367 0.5139181368 0.3747441369 0.2494261370 0.1288481371 0.0253791372 -0.0551761373 -0.1137641374 -0.1663881375 -0.2285041376 -0.2514681377 -0.2109851378 -0.1595171379 -0.1386201380 -0.1351671381 -0.1374451382 -0.1471081383 -0.1550081384 -0.1569031385 -0.1410901386 -0.0999801387 -0.0536761388 -0.0295791389 -0.0100751390 0.0396881391 0.0718891392 0.0520081393 0.0426611394 0.0353381395 0.0340551396 0.0349651397 -0.0020441398 -0.0537151399 -0.0937271400 -0.0849021401 -0.0593061402 -0.0542231403 -0.0560141404 -0.0558811405 -0.0855481406 -0.1168951407 -0.0935891408 -0.0187361409 -0.0025931410 -0.0303681411 -0.0421161412 -0.0527541413 -0.0681791414 -0.0774821415 -0.1052391416 -0.1158431417 -0.1378461418 -0.1562901419 -0.1449781420 -0.1146741421 -0.0852021422 -0.0694551423 -0.0692871424 -0.0633291425 -0.0467251426 -0.0348261427 -0.0428701428 -0.0496761429 -0.0453811430 -0.0312501431 -0.0555631432 -0.0616071433 -0.0557541434 -0.0356291435 -0.0303401436 -0.0327661437 -0.0398521438 -0.0568991439 -0.0818191440 -0.0893261441 -0.0830491442 -0.0915561443 -0.1042881444 -0.1314111445 -0.1116041446 -0.0917931447 -0.0748761448 -0.0634391449 -0.0555151450 -0.0443991451 -0.0305301452 -0.0134541453 0.0001191454 0.0041851455 -0.0307501456 -0.0339151457 -0.0145401458 0.0138751459 0.0373301460 0.0371291461 0.0177621462 -0.0091361463 -0.0047481464 0.0050471465 0.0178571466 0.0230111467 0.0178201468 0.0318321469 0.0430711470 0.0302261471 0.0167741472 0.0110301473 0.0021151474 -0.0001591475 -0.0094641476 0.0208171477 0.0333341478 0.0385171479 0.0463381480 0.0461181481 0.0384021482 0.0389041483 0.0305341484 0.0195061485 0.0155121486 0.0119411487 0.0101401488 0.0196701489 0.0145431490 0.0374221491 0.0717511492 0.0818121493 0.0806981494 0.1062121495 0.1166871496 0.1187661497 0.1151371498 0.0922741499 0.0881881500 0.0922331501 0.1009031502 0.1219201503 0.1501941504 0.1799221505 0.1927601506 0.2020441507 0.2090481508 0.2112511509 0.1985831510 0.1896281511 0.1757741512 0.1572741513 0.1552331514 0.1715061515 0.1645211516 0.1810491517 0.2159341518 0.2438131519 0.2668571520 0.2745491521 0.2795331522 0.3095451523 0.3114321524 0.3192541525 0.3464691526 0.3781801527 0.4074151528 0.4154241529 0.4119501530 0.4274571531 0.4532931532 0.4817571533 0.4980861534 0.5043331535 0.5031751536 0.5096481537 0.5108541538 0.4856501539 0.5043631540 0.5325501541 0.5468391542 0.5468581543 0.5272651544 0.5138731545 0.4998601546 0.5020471547 0.4892141548 0.4904221549 0.5193071550 0.5743261551 0.5789111552 0.5695381553 0.5436831554 0.5396831555 0.5365061556 0.5574591557 0.5778561558 0.5806841559 0.5683071560 0.5262191561 0.5108931562 0.5057181563 0.4850671564 0.5024481565 0.5147501566 0.5065581567 0.5024941568 0.4875601569 0.4834391570 0.4967351571 0.4991141572 0.4833501573 0.4672401574 0.4814301575 0.5051501576 0.4978921577 0.4750521578 0.4515901579 0.4297261580 0.4187151581 0.4107171582 0.4087801583 0.4269361584 0.4183951585 0.4038301586 0.3957131587 0.3666781588 0.3338571589 0.3391761590 0.3455601591 0.3370481592 0.3307861593 0.3329111594 0.3343321595 0.3064391596 0.2927481597 0.2805511598 0.2845771599 0.2787181600 0.2718331601 0.2636691602 0.2608841603 0.2691851604 0.2695691605 0.2666251606 0.2568871607 0.2531861608 0.2609731609 0.2745721610 0.2893531611 0.2857901612 0.2694111613 0.2666371614 0.2605361615 0.2545041616 0.2479181617 0.2477961618 0.2644851619 0.2634291620 0.2730241621 0.2965791622 0.3043971623 0.3099481624 0.3301321625 0.3415951626 0.3570741627 0.3497291628 0.3534331629 0.3349781630 0.3262021631 0.3159911632 0.3061911633 0.2794091634 0.2787491635 0.2874931636 0.3047671637 0.3172241638 0.3107771639 0.3184081640 0.3200741641 0.3347181642 0.3523791643 0.3863991644 0.4016941645 0.3990681646 0.4075421647 0.3926471648 0.3806731649 0.3868351650 0.3913491651 0.3634081652 0.3410471653 0.3549441654 0.3761391655 0.3797261656 0.4005471657 0.4249071658 0.4343441659 0.4414811660 0.4539721661 0.4625361662 0.4610981663 0.4629971664 0.4652541665 0.4928751666 0.5351491667 0.5459071668 0.5677431669 0.5961421670 0.6395271671 0.6672141672 0.6652711673 0.6563181674 0.6592581675 0.6409911676 0.6401281677 0.6467401678 0.6301541679 0.6108341680 0.5963331681 0.5773491682 0.5518541683 0.5412991684 0.4908611685 0.4577191686 0.4433321687 0.4256801688 0.3994591689 0.3801991690 0.3763101691 0.3650331692 0.3403221693 0.3166451694 0.3047501695 0.2713971696 0.2470931697 0.2338531698 0.2290121699 0.2210981700 0.1777831701 0.1259201702 0.1196551703 0.1206091704 0.1061051705 0.0734241706 0.0240651707 -0.0000191708 -0.0202321709 -0.0292051710 -0.0227361711 -0.0358101712 -0.0627001713 -0.1171351714 -0.1605071715 -0.1701271716 -0.1914701717 -0.2224191718 -0.2694561719 -0.2998081720 -0.3135151721 -0.3154251722 -0.3031151723 -0.2787441724 -0.2728511725 -0.2761151726 -0.2951081727 -0.3240531728 -0.3446161729 -0.3457521730 -0.3316131731 -0.2935371732 -0.2661031733 -0.2392691734 -0.2065541735 -0.2052771736 -0.2128011737 -0.2187791738 -0.2173731739 -0.2274311740 -0.2165931741 -0.1973251742 -0.1788801743 -0.1471841744 -0.1366581745 -0.1339981746 -0.1219231747 -0.1029201748 -0.0990121749 -0.0955691750 -0.1011711751 -0.1235531752 -0.1256231753 -0.0935641754 -0.0609941755 -0.0211931756 -0.0033491757 0.0031721758 0.0085781759 0.0184451760 0.0255641761 0.0338561762 0.0423841763 0.0414261764 0.0166371765 0.0132631766 0.0404011767 0.0712711768 0.0834821769 0.1032591770 0.0976141771 0.0824511772 0.0865761773 0.0836321774 0.0759451775 0.0823091776 0.0577161777 0.0490791778 0.0509511779 0.0572791780 0.0812141781 0.0749971782 0.0619241783 0.0684161784 0.0881551785 0.1263141786 0.1478201787 0.1456461788 0.1331051789 0.1321111790 0.1413791791 0.1325601792 0.1262711793 0.1160491794 0.1202041795 0.1295941796 0.1393601797 0.1406181798 0.1441561799 0.1561681800 0.1900331801 0.2221821802 0.2320511803 0.2301311804 0.2381101805 0.2530951806 0.2478941807 0.2233201808 0.2125071809 0.2051921810 0.2119321811 0.2362531812 0.2626981813 0.2607731814 0.2488121815 0.2257391816 0.2267921817 0.2311981818 0.2338621819 0.2290801820 0.2223111821 0.2260331822 0.2476941823 0.2697651824 0.2378871825 0.2051041826 0.1681501827 0.1677731828 0.2010581829 0.2457091830 0.2482791831 0.2483151832 0.2424041833 0.2321191834 0.2558611835 0.2846221836 0.2936941837 0.3063401838 0.3094691839 0.3133471840 0.3193761841 0.3559491842 0.3904151843 0.4251411844 0.4176731845 0.4049811846 0.4117581847 0.4267481848 0.4510681849 0.4504971850 0.4316911851 0.4423271852 0.4871321853 0.5278161854 0.5508951855 0.5394471856 0.5408091857 0.5302381858 0.5225951859 0.5400471860 0.5478541861 0.5622491862 0.5744061863 0.5985221864 0.6199941865 0.6436821866 0.6622121867 0.6643211868 0.6871811869 0.7086831870 0.7356451871 0.7279381872 0.7264921873 0.7252141874 0.6987931875 0.6984411876 0.7275681877 0.7374491878 0.7388901879 0.7459521880 0.7397451881 0.7323121882 0.7346231883 0.7406771884 0.7356911885 0.7523831886 0.7432881887 0.7411051888 0.7390281889 0.7390211890 0.7480331891 0.7220951892 0.6823251893 0.6548241894 0.6424651895 0.6166121896 0.5927851897 0.5703151898 0.5400101899 0.5038791900 0.4749261901 0.4530481902 0.4290431903 0.4247261904 0.4171471905 0.4268741906 0.4063381907 0.3761831908 0.3455941909 0.3365771910 0.3241641911 0.2965081912 0.2868711913 0.2775001914 0.2674091915 0.2400821916 0.2271331917 0.1919491918 0.1573551919 0.1413381920 0.1128461921 0.0956961922 0.0845891923 0.0772361924 0.0665841925 0.0611101926 0.0451681927 0.0233471928 0.0128061929 0.0075491930 -0.0053751931 0.0182231932 0.0596511933 0.0932151934 0.1099851935 0.1135051936 0.0914391937 0.0552231938 0.0357191939 0.0389441940 0.0498681941 0.0763211942 0.1210081943 0.1656331944 0.2031261945 0.2659381946 0.3423901947 0.3890291948 0.4309641949 0.4781521950 0.5375931951 0.5974271952 0.6589201953 0.7283401954 0.8167381955 0.9116451956 0.9887391957 1.0554781958 1.0867691959 1.0926831960 1.0862621961 1.0714111962 1.0589171963 1.0225621964 0.9753381965 0.9177461966 0.8221301967 0.7250351968 0.6315411969 0.5315441970 0.4199551971 0.2888091972 0.1592581973 0.0414551974 -0.0496561975 -0.1026271976 -0.1418371977 -0.1838481978 -0.2097341979 -0.2253621980 -0.2295971981 -0.2224071982 -0.1968701983 -0.1950561984 -0.2118321985 -0.1825811986 -0.1468721987 -0.1361151988 -0.1132341989 -0.0843861990 -0.0707511991 -0.0604271992 -0.0484191993 -0.0247411994 0.0053901995 0.0252831996 0.0384461997 0.0442561998 0.0416241999 0.0327212000 0.0027662001 -0.0160872002 -0.0207612003 -0.0211652004 -0.0199972005 0.0155102006 0.0379122007 0.0438842008 0.0625422009 0.0837242010 0.0861932011 0.0737552012 0.0552762013 0.0485902014 0.0363172015 0.0256072016 0.0198332017 0.0102572018 0.0197222019 0.0223712020 0.0314462021 0.0391682022 0.0327212023 0.0383352024 0.0414642025 0.0510342026 0.0397482027 0.0564032028 0.0742062029 0.0870452030 0.1016952031 0.1179252032 0.1165272033 0.1192302034 0.1325302035 0.1434412036 0.1592012037 0.1549492038 0.1414222039 0.1366832040 0.1299242041 0.1333452042 0.1301482043 0.1226122044 0.1042682045 0.1121442046 0.1270572047 0.1179302048 0.1180932049 0.1215482050 0.1231592051 0.1187672052 0.1212042053 0.1322102054 0.1502562055 0.1543022056 0.1554992057 0.1728762058 0.1810422059 0.1699292060 0.1566012061 0.1611472062 0.1706752063 0.1793962064 0.2048112065 0.2199492066 0.2096702067 0.2069772068 0.2053102069 0.2108102070 0.2144942071 0.2123592072 0.2173822073 0.2314222074 0.2410382075 0.2332272076 0.2111352077 0.1977352078 0.1955372079 0.1823332080 0.1830172081 0.1894922082 0.1806842083 0.1906422084 0.1967362085 0.2079152086 0.2170162087 0.2090782088 0.2176382089 0.2329792090 0.2303012091 0.2218022092 0.2246662093 0.2329432094 0.2333452095 0.2409842096 0.2470522097 0.2305102098 0.2177872099 0.2225372100 0.2254732101 0.2262872102 0.2396842103 0.2475072104 0.2589472105 0.2548252106 0.2639102107 0.2552372108 0.2384082109 0.2398312110 0.2428802111 0.2399632112 0.2284862113 0.2067112114 0.2135362115 0.2282082116 0.2380002117 0.2418852118 0.2342402119 0.2246062120 0.2255322121 0.2205182122 0.2160612123 0.2138032124 0.2187612125 0.2276232126 0.2210742127 0.2241282128 0.2504262129 0.2624702130 0.2397772131 0.2469282132 0.2615112133 0.2779722134 0.2833702135 0.2610732136 0.2624312137 0.2744422138 0.2834542139 0.2909332140 0.3013122141 0.3059512142 0.3311902143 0.3585192144 0.3768182145 0.3826642146 0.3846742147 0.3718342148 0.3738002149 0.3771302150 0.3574252151 0.3353742152 0.3326892153 0.3279342154 0.3322792155 0.3291832156 0.3500612157 0.3619442158 0.3791782159 0.3951992160 0.4063852161 0.3960212162 0.4023622163 0.4028082164 0.4021532165 0.3969022166 0.3916132167 0.3992332168 0.3934002169 0.3846792170 0.3966962171 0.3941852172 0.3829132173 0.3855142174 0.3812252175 0.3855722176 0.4060262177 0.4216602178 0.4068502179 0.3910382180 0.3905942181 0.3967752182 0.3837972183 0.3810092184 0.3731492185 0.3766672186 0.3760692187 0.3762602188 0.3788452189 0.3823672190 0.3904512191 0.3838372192 0.3803182193 0.3825602194 0.3738462195 0.3737532196 0.3858052197 0.3971242198 0.3861302199 0.3782972200 0.3740112201 0.3725322202 0.3480622203 0.3619162204 0.3667902205 0.3550802206 0.3232382207 0.3201122208 0.3512622209 0.3791942210 0.3715062211 0.3489382212 0.3412902213 0.3352602214 0.3421692215 0.3256452216 0.3172652217 0.3002032218 0.2969252219 0.2929432220 0.2806632221 0.2513522222 0.2472032223 0.2575112224 0.2589402225 0.2718472226 0.2846372227 0.2821162228 0.2818032229 0.2981682230 0.3147882231 0.3323902232 0.3367752233 0.3306502234 0.3333602235 0.3325642236 0.3238772237 0.3105182238 0.3109932239 0.3148492240 0.3265232241 0.3212992242 0.3093742243 0.3120382244 0.3259332245 0.3473872246 0.3447682247 0.3428392248 0.3510752249 0.3439102250 0.3408922251 0.3427252252 0.3312052253 0.3250432254 0.3235992255 0.3105572256 0.3095682257 0.3158942258 0.3280892259 0.3397462260 0.3313442261 0.3301992262 0.3185282263 0.3176212264 0.3281102265 0.3262892266 0.2964822267 0.2793902268 0.2924272269 0.2979612270 0.2874862271 0.2736652272 0.2702722273 0.2600162274 0.2382822275 0.2328012276 0.2512862277 0.2570702278 0.2567832279 0.2480882280 0.2395252281 0.2144492282 0.2271012283 0.2467702284 0.2620602285 0.2612142286 0.2444862287 0.2445032288 0.2385962289 0.2410612290 0.2513212291 0.2499912292 0.2228162293 0.2005042294 0.2104642295 0.2204762296 0.2263192297 0.2314082298 0.2424602299 0.2692272300 0.2923232301 0.2831652302 0.2680292303 0.2722112304 0.2722962305 0.2964832306 0.3089542307 0.3182502308 0.3216062309 0.3212182310 0.3004252311 0.2917692312 0.3009492313 0.2946572314 0.2763232315 0.2617752316 0.2708732317 0.2791312318 0.2733712319 0.2554522320 0.2460832321 0.2407532322 0.2257782323 0.2304612324 0.2273582325 0.2286102326 0.2263212327 0.2049322328 0.1975702329 0.1943312330 0.2024642331 0.2064542332 0.2039702333 0.1977092334 0.2111302335 0.2041172336 0.2006042337 0.2001932338 0.1937972339 0.1953602340 0.2096652341 0.2162492342 0.2254542343 0.2305822344 0.2201602345 0.2142792346 0.2129712347 0.2166002348 0.2302182349 0.2398492350 0.2366922351 0.2331962352 0.2350172353 0.2408572354 0.2422042355 0.2309892356 0.2152082357 0.1985252358 0.1959142359 0.2133672360 0.2116972361 0.1824542362 0.1639742363 0.1655382364 0.1636332365 0.1863032366 0.1895292367 0.1856342368 0.1756352369 0.1575412370 0.1545512371 0.1511302372 0.1489692373 0.1628182374 0.1802172375 0.2011472376 0.2016412377 0.1813802378 0.1553362379 0.1614772380 0.1765732381 0.1921182382 0.1983802383 0.1965672384 0.1911062385 0.1899932386 0.1851862387 0.1970092388 0.2265112389 0.2357612390 0.2280412391 0.2439142392 0.2491742393 0.2466712394 0.2400232395 0.2372642396 0.2504462397 0.2472312398 0.2545372399 0.2422372400 0.2509762401 0.2641082402 0.2677552403 0.2709932404 0.2821392405 0.2731182406 0.2758692407 0.2827472408 0.2628872409 0.2624922410 0.2730082411 0.2751882412 0.2710132413 0.2715002414 0.2764032415 0.2618402416 0.2758842417 0.2781542418 0.2714582419 0.2535052420 0.2447402421 0.2322922422 0.2180582423 0.2069102424 0.2070072425 0.1941742426 0.1923202427 0.1898472428 0.2000092429 0.2131882430 0.2130592431 0.2046302432 0.1941382433 0.1848332434 0.1886562435 0.1778502436 0.1725332437 0.1802882438 0.1918062439 0.1726082440 0.1428912441 0.1215072442 0.1060692443 0.1011882444 0.0988082445 0.1146072446 0.1164332447 0.1007132448 0.0968182449 0.0913252450 0.0601662451 0.0326372452 0.0072762453 0.0116132454 0.0258202455 0.0262992456 0.0132452457 0.0222292458 0.0318342459 0.0234012460 0.0288852461 0.0308542462 0.0626262463 0.0845282464 0.0842642465 0.0893332466 0.0874772467 0.0791102468 0.0536732469 0.0618912470 0.0599102471 0.0492842472 0.0248302473 0.0183542474 0.0222782475 0.0132012476 0.0034472477 -0.0073672478 -0.0086872479 0.0007172480 0.0166242481 0.0453812482 0.0720592483 0.0967352484 0.1028822485 0.1098092486 0.1131222487 0.1171592488 0.1193562489 0.1145002490 0.0948532491 0.0901372492 0.0793612493 0.0585362494 0.0482812495 0.0453692496 0.0462662497 0.0346842498 0.0172202499 -0.0049062500 -0.0199752501 -0.0137442502 0.0027212503 -0.0066602504 -0.0185822505 -0.0098992506 -0.0051472507 -0.0000992508 0.0186082509 0.0497322510 0.0655512511 0.0838402512 0.0797012513 0.0892602514 0.1212692515 0.1486372516 0.1879542517 0.2230422518 0.2445802519 0.2778432520 0.3225752521 0.3810132522 0.4620582523 0.4975752524 0.5347972525 0.5927872526 0.6709192527 0.7253272528 0.7932822529 0.8574582530 0.9420572531 1.0207982532 1.0687412533 1.1019962534 1.1213162535 1.1276422536 1.1056182537 1.0671442538 1.0269992539 0.9785702540 0.9297232541 0.8588132542 0.7908522543 0.7057922544 0.6149272545 0.5173462546 0.4244062547 0.3361832548 0.2258512549 0.1399502550 0.0905282551 0.0591282552 0.0166422553 -0.0049802554 -0.0211082555 -0.0468882556 -0.0577032557 -0.0376222558 -0.0117772559 -0.0146342560 -0.0101392561 0.0042862562 0.0058762563 0.0148052564 0.0065512565 0.0243412566 0.0396052567 0.0564212568 0.0518902569 0.0524052570 0.0538042571 0.0493782572 0.0537412573 0.0505702574 0.0402462575 0.0434342576 0.0486282577 0.0317232578 0.0196432579 0.0260632580 0.0432582581 0.0380842582 0.0320932583 0.0457822584 0.0709262585 0.0949952586 0.0855852587 0.0788422588 0.0758312589 0.0708082590 0.0713852591 0.0825592592 0.0906062593 0.0788562594 0.0673652595 0.0885222596 0.0866272597 0.0774792598 0.0600122599 0.0520222600 0.0820002601 0.0930912602 0.1191892603 0.1451452604 0.1750792605 0.2047532606 0.2219882607 0.2190592608 0.2130492609 0.2141272610 0.2017122611 0.1805192612 0.1604872613 0.1605802614 0.1444972615 0.1403072616 0.1360582617 0.1073902618 0.0851892619 0.0833162620 0.0824342621 0.0739512622 0.0760842623 0.0780432624 0.0883042625 0.1069522626 0.1340692627 0.1621022628 0.1762122629 0.1865372630 0.1963662631 0.1982062632 0.1897162633 0.1935402634 0.2130502635 0.2240072636 0.2342022637 0.2310842638 0.2214262639 0.2270652640 0.2327282641 0.2259662642 0.2212112643 0.2199262644 0.2308612645 0.2503812646 0.2428142647 0.2288142648 0.2336842649 0.2236332650 0.2259482651 0.2370552652 0.2224742653 0.2046662654 0.2107842655 0.2083622656 0.2009722657 0.2118672658 0.2196692659 0.2181142660 0.2078822661 0.1965372662 0.2025732663 0.2115682664 0.1884222665 0.1856652666 0.1718012667 0.1636522668 0.1706712669 0.1751912670 0.1805902671 0.1873462672 0.1769912673 0.1919592674 0.2073332675 0.2145512676 0.2290552677 0.2539572678 0.2717272679 0.2639522680 0.2591752681 0.2608442682 0.2553672683 0.2442692684 0.2404432685 0.2124572686 0.1768912687 0.1546862688 0.1554442689 0.1656702690 0.1689192691 0.1858422692 0.1981262693 0.2203232694 0.2235942695 0.2353982696 0.2551462697 0.2618572698 0.2538582699 0.2365542700 0.2462762701 0.2582522702 0.2906802703 0.2929062704 0.2896882705 0.2855182706 0.2969722707 0.3090552708 0.3075002709 0.3269972710 0.3273302711 0.3174042712 0.3071552713 0.3033612714 0.2853662715 0.2647462716 0.2489542717 0.2329692718 0.2390062719 0.2522802720 0.2648862721 0.2677872722 0.2789062723 0.2673372724 0.2616252725 0.2621162726 0.2573162727 0.2802452728 0.3247362729 0.3536542730 0.3350152731 0.3259882732 0.2967872733 0.2864532734 0.2745512735 0.2408242736 0.2208122737 0.2175042738 0.2090352739 0.2164682740 0.2236832741 0.2373882742 0.2472362743 0.2540612744 0.2501862745 0.2517842746 0.2552642747 0.2616252748 0.2647612749 0.2676672750 0.2665512751 0.2668112752 0.2669072753 0.2861162754 0.2962142755 0.3131022756 0.3004202757 0.2971832758 0.2894882759 0.2862922760 0.2953252761 0.3071052762 0.3110852763 0.3038992764 0.2816902765 0.2764922766 0.2686212767 0.2630362768 0.2616432769 0.2595032770 0.2489242771 0.2554432772 0.2536692773 0.2550362774 0.2474632775 0.2309752776 0.2253012777 0.2175112778 0.2297112779 0.2428382780 0.2565652781 0.2413272782 0.2544742783 0.2605312784 0.2715322785 0.2714122786 0.2564022787 0.2434022788 0.2382792789 0.2520822790 0.2651362791 0.2710082792 0.2643642793 0.2687022794 0.2440172795 0.2344062796 0.2316702797 0.2389452798 0.2383922799 0.2309902800 0.2364352801 0.2091762802 0.2025582803 0.1890872804 0.1727632805 0.1534692806 0.1273742807 0.1113032808 0.1110492809 0.0975882810 0.0911802811 0.1213422812 0.1387032813 0.1387472814 0.1334782815 0.1350292816 0.1312602817 0.1013832818 0.0916532819 0.0831432820 0.0716432821 0.0916802822 0.1126592823 0.1311182824 0.1470602825 0.1443442826 0.1430882827 0.1600452828 0.1849172829 0.1845782830 0.1671872831 0.1381662832 0.1160682833 0.1163252834 0.1229192835 0.1319902836 0.1474372837 0.1565392838 0.1456382839 0.1439102840 0.1512512841 0.1542892842 0.1425132843 0.1485252844 0.1603632845 0.1618912846 0.1612002847 0.1789862848 0.1768732849 0.1536412850 0.1253482851 0.1133202852 0.1040262853 0.0848332854 0.0876792855 0.0686922856 0.0557842857 0.0362732858 0.0205622859 0.0258992860 0.0242632861 -0.0016382862 -0.0182362863 -0.0248682864 -0.0294482865 -0.0280882866 -0.0286932867 -0.0385852868 -0.0321722869 -0.0267222870 -0.0222312871 -0.0174352872 -0.0099292873 -0.0044002874 -0.0209612875 -0.0315232876 -0.0282002877 -0.0276822878 -0.0115652879 -0.0065782880 -0.0007152881 -0.0032262882 -0.0124962883 -0.0158092884 -0.0210272885 -0.0082102886 -0.0132192887 -0.0153402888 -0.0209632889 -0.0193522890 -0.0185142891 -0.0132042892 0.0069492893 0.0372092894 0.0534172895 0.0436072896 0.0316152897 0.0046982898 0.0172222899 0.0224272900 0.0163052901 0.0136062902 0.0159592903 0.0121082904 0.0222372905 0.0343412906 0.0326242907 0.0418652908 0.0437422909 0.0370542910 0.0378382911 0.0513592912 0.0279872913 0.0309632914 0.0280772915 0.0152912916 0.0083572917 0.0344422918 0.0518232919 0.0576572920 0.0398792921 0.0292062922 0.0312672923 0.0388402924 0.0401692925 0.0473332926 0.0406372927 0.0489682928 0.0581052929 0.0669332930 0.0555522931 0.0452622932 0.0384352933 0.0222752934 0.0045032935 0.0009882936 0.0153702937 0.0226952938 0.0451252939 0.0677252940 0.0703622941 0.0717242942 0.0894482943 0.1003552944 0.1087692945 0.1148722946 0.1270872947 0.1224282948 0.1267892949 0.1351492950 0.1276702951 0.1176762952 0.1235222953 0.1403532954 0.1557992955 0.1576112956 0.1573012957 0.1417952958 0.1291472959 0.1283402960 0.1471972961 0.1603942962 0.1696012963 0.1677102964 0.1671442965 0.1762082966 0.1794542967 0.1740162968 0.1658902969 0.1821222970 0.1829032971 0.2215402972 0.2323302973 0.2303322974 0.2390602975 0.2341402976 0.2269592977 0.2283322978 0.2402302979 0.2515882980 0.2742232981 0.2828512982 0.2992202983 0.3083282984 0.3227282985 0.3188572986 0.3013912987 0.2995612988 0.2994272989 0.3040572990 0.3016192991 0.3093572992 0.3014652993 0.3248752994 0.3509602995 0.3552162996 0.3489112997 0.3187742998 0.3147352999 0.3217353000 0.3116423001 0.2832653002 0.2664743003 0.2624103004 0.2477673005 0.2471153006 0.2572293007 0.2514043008 0.2397163009 0.2292043010 0.2359623011 0.2251243012 0.2067533013 0.1836363014 0.1590143015 0.1402623016 0.1425643017 0.1366063018 0.1243173019 0.1186853020 0.1156633021 0.1141773022 0.1122343023 0.0951193024 0.0956573025 0.0865263026 0.0845773027 0.0991373028 0.1202663029 0.1309463030 0.1351713031 0.1139513032 0.0932073033 0.0995863034 0.0922033035 0.0743343036 0.0731033037 0.0751803038 0.0745173039 0.0761693040 0.0601903041 0.0616293042 0.0626293043 0.0566043044 0.0364903045 0.0350513046 0.0331823047 0.0442203048 0.0541913049 0.0660073050 0.0635673051 0.0357613052 0.0163903053 0.0279803054 0.0215463055 0.0322923056 0.0233083057 -0.0027343058 -0.0198403059 -0.0388843060 -0.0437123061 -0.0471623062 -0.0509763063 -0.0576333064 -0.0541063065 -0.0595753066 -0.0651183067 -0.0654143068 -0.0864863069 -0.0975023070 -0.1066643071 -0.1171903072 -0.1273933073 -0.1268383074 -0.1325903075 -0.1374883076 -0.1224613077 -0.1008233078 -0.0745283079 -0.0383753080 -0.0161233081 -0.0165083082 -0.0251763083 -0.0525173084 -0.0694383085 -0.0430753086 -0.0244923087 0.0116253088 0.0672173089 0.1090623090 0.1488833091 0.1873823092 0.2181653093 0.2875903094 0.3585313095 0.4221023096 0.4973503097 0.5709613098 0.6449993099 0.7327033100 0.8183713101 0.9093253102 1.0159843103 1.1000183104 1.1625763105 1.1925663106 1.1989563107 1.1830693108 1.1548483109 1.1170523110 1.0733783111 1.0044923112 0.8879553113 0.7860783114 0.6936883115 0.6378543116 0.5655863117 0.4595413118 0.3457663119 0.1974923120 0.0870213121 0.0016923122 -0.0360523123 -0.0725093124 -0.0864933125 -0.0890563126 -0.0831903127 -0.0715303128 -0.0480993129 -0.0181093130 -0.0058413131 0.0213793132 0.0611173133 0.1076693134 0.1518413135 0.1686673136 0.2091123137 0.2397843138 0.2466763139 0.2389673140 0.2089123141 0.1798133142 0.1860873143 0.1894313144 0.1790383145 0.1518863146 0.1250273147 0.0718803148 0.0264873149 0.0237073150 0.0353243151 0.0340693152 0.0335503153 0.0600923154 0.0885053155 0.1018093156 0.1109363157 0.1144423158 0.1262503159 0.1394673160 0.1542673161 0.1418823162 0.1406703163 0.1442813164 0.1498883165 0.1584643166 0.1710833167 0.1812063168 0.1869373169 0.2032043170 0.1938713171 0.1717503172 0.1505223173 0.1565763174 0.1647693175 0.1701483176 0.1756493177 0.1638073178 0.1405083179 0.1347983180 0.1307783181 0.1475963182 0.1435203183 0.1321123184 0.1384663185 0.1474923186 0.1482203187 0.1500953188 0.1512263189 0.1505783190 0.1520733191 0.1446063192 0.1299603193 0.1306323194 0.1455923195 0.1419933196 0.1548563197 0.1467783198 0.1236743199 0.1225843200 0.1435703201 0.1497063202 0.1551573203 0.1373653204 0.1292903205 0.1237113206 0.1215363207 0.1361113208 0.1374783209 0.1285733210 0.1053363211 0.0807173212 0.0485953213 0.0355913214 0.0168173215 0.0155743216 0.0350283217 0.0299013218 0.0221973219 0.0250043220 0.0263873221 0.0373713222 0.0600383223 0.0517063224 0.0531903225 0.0491123226 0.0442313227 0.0477583228 0.0536343229 0.0487363230 0.0329923231 0.0313903232 0.0218903233 0.0192333234 0.0026773235 -0.0243223236 -0.0544443237 -0.0728333238 -0.0893793239 -0.0869273240 -0.1133943241 -0.1177833242 -0.1060893243 -0.1091083244 -0.1021653245 -0.0967923246 -0.1083843247 -0.1118633248 -0.1213943249 -0.1221643250 -0.1302673251 -0.1446893252 -0.1593993253 -0.1555523254 -0.1777583255 -0.1864133256 -0.1860523257 -0.1896893258 -0.1871113259 -0.1810953260 -0.1635393261 -0.1594703262 -0.1469483263 -0.1448713264 -0.1286933265 -0.1220843266 -0.1205773267 -0.1232173268 -0.1122613269 -0.0889593270 -0.0854223271 -0.0726083272 -0.0644223273 -0.0739183274 -0.0975823275 -0.1036783276 -0.1046123277 -0.0972873278 -0.1114083279 -0.1137123280 -0.1040943281 -0.0996173282 -0.1024143283 -0.1114803284 -0.1223823285 -0.1309063286 -0.1286913287 -0.1148683288 -0.1037513289 -0.0846143290 -0.0655573291 -0.0534943292 -0.0622603293 -0.0608173294 -0.0615543295 -0.0566403296 -0.0303983297 -0.0036703298 0.0178713299 0.0314963300 0.0452853301 0.0421253302 0.0158113303 -0.0327343304 -0.0591613305 -0.0593343306 -0.0529533307 -0.0431873308 -0.0563613309 -0.0497293310 -0.0393503311 -0.0160763312 -0.0096663313 0.0149933314 0.0335853315 0.0300003316 0.0399503317 0.0266083318 0.0242883319 0.0382213320 0.0564293321 0.0537223322 0.0518133323 0.0715473324 0.0812083325 0.0688893326 0.0428733327 0.0400043328 0.0500003329 0.0436713330 0.0370503331 0.0393793332 0.0249933333 0.0210873334 0.0193983335 0.0358383336 0.0421053337 0.0413233338 0.0357263339 0.0304443340 0.0293883341 0.0272593342 0.0496773343 0.0494203344 0.0627363345 0.0777213346 0.0827023347 0.0786033348 0.0952453349 0.1195683350 0.1117293351 0.1050883352 0.1060713353 0.1019323354 0.0884233355 0.0894303356 0.0925813357 0.0808943358 0.0684743359 0.0643063360 0.0681603361 0.0746133362 0.0931953363 0.0966343364 0.0971803365 0.1029783366 0.1144493367 0.1286473368 0.1355473369 0.1342483370 0.1370583371 0.1334613372 0.1099713373 0.0978783374 0.0849213375 0.0869223376 0.0873983377 0.0692203378 0.0783253379 0.1195263380 0.1284363381 0.1115053382 0.1061783383 0.0971523384 0.0687013385 0.0410473386 0.0187373387 0.0229863388 0.0639453389 0.0528903390 0.0462893391 0.0497543392 0.0698783393 0.0819783394 0.0977583395 0.1089473396 0.1189293397 0.1064073398 0.0891373399 0.0877553400 0.1097143401 0.1373463402 0.1680253403 0.1784313404 0.1768823405 0.2196983406 0.2475673407 0.2578723408 0.2209473409 0.1922443410 0.1923833411 0.1990863412 0.1790063413 0.1594633414 0.1521103415 0.1525733416 0.1040913417 0.0851973418 0.1054683419 0.1253713420 0.1242223421 0.1322563422 0.1348003423 0.1245453424 0.1338713425 0.1392073426 0.1573863427 0.1739563428 0.1754163429 0.1813713430 0.1765593431 0.1667833432 0.1507273433 0.1516873434 0.1532423435 0.1469073436 0.1597773437 0.1862313438 0.1916933439 0.1885013440 0.1758713441 0.1599823442 0.1661563443 0.1671243444 0.1793513445 0.1953853446 0.1801953447 0.1794683448 0.1758373449 0.1650083450 0.1637903451 0.1620093452 0.1583293453 0.1759833454 0.2064573455 0.2131463456 0.2030223457 0.1703473458 0.1364493459 0.1135963460 0.1089723461 0.1087573462 0.1103163463 0.1224503464 0.1177213465 0.1127823466 0.1007073467 0.0792773468 0.0631923469 0.0761983470 0.0871063471 0.0817113472 0.0866173473 0.1009783474 0.1001883475 0.0955513476 0.1059573477 0.1016043478 0.1037823479 0.1007513480 0.0917193481 0.0829233482 0.1077993483 0.1072383484 0.1138863485 0.1164773486 0.1121433487 0.1106983488 0.1068473489 0.1003053490 0.1038293491 0.1111363492 0.1247403493 0.1437033494 0.1473393495 0.1628893496 0.1772133497 0.1605103498 0.1501073499 0.1343303500 0.1084803501 0.0948933502 0.1031133503 0.0901213504 0.0726313505 0.0794083506 0.0755813507 0.0829153508 0.0840333509 0.0705453510 0.0950853511 0.1032503512 0.1014453513 0.1086553514 0.1081503515 0.1271773516 0.1246403517 0.1308253518 0.1231803519 0.1301713520 0.1552433521 0.1528673522 0.1566873523 0.1677523524 0.1787933525 0.1865393526 0.1720343527 0.1649173528 0.1756513529 0.1716753530 0.1734553531 0.1664463532 0.1529493533 0.1478973534 0.1425683535 0.1362753536 0.1440513537 0.1683523538 0.1908233539 0.1881373540 0.1919263541 0.1888193542 0.1965613543 0.2202343544 0.2405313545 0.2500743546 0.2537343547 0.2569353548 0.2619023549 0.2478363550 0.2269943551 0.2046703552 0.1990783553 0.2091413554 0.1942123555 0.1817573556 0.1550213557 0.1247193558 0.1367683559 0.1561013560 0.1745673561 0.1869463562 0.1830563563 0.1799583564 0.1822353565 0.1623173566 0.1408233567 0.1268903568 0.1304493569 0.1464333570 0.1388823571 0.1249493572 0.0987933573 0.0913833574 0.0702113575 0.0549623576 0.0411613577 0.0238293578 0.0251943579 0.0224633580 0.0077083581 -0.0001573582 0.0007253583 -0.0046503584 -0.0038603585 -0.0127193586 -0.0389103587 -0.0496273588 -0.0552643589 -0.0491763590 -0.0515403591 -0.0693313592 -0.0964053593 -0.0977063594 -0.0935503595 -0.0959823596 -0.1131523597 -0.1136943598 -0.1150513599 -0.1437323600 -0.1474633601 -0.1272243602 -0.1411583603 -0.1603813604 -0.1726763605 -0.1701363606 -0.1727683607 -0.1721013608 -0.1628453609 -0.1626193610 -0.1677883611 -0.1654223612 -0.1613733613 -0.1524773614 -0.1428593615 -0.1323043616 -0.1206633617 -0.1282603618 -0.1402433619 -0.1588753620 -0.1677043621 -0.1636203622 -0.1527733623 -0.1383713624 -0.1203723625 -0.1071043626 -0.1068443627 -0.1073993628 -0.0997333629 -0.0816753630 -0.0857353631 -0.1030483632 -0.1154533633 -0.1116993634 -0.1197563635 -0.1272093636 -0.1376833637 -0.1512773638 -0.1809413639 -0.2247783640 -0.2382373641 -0.2221673642 -0.2107463643 -0.2152683644 -0.2318273645 -0.2289143646 -0.2149813647 -0.1980073648 -0.1931013649 -0.1901993650 -0.1898733651 -0.1952693652 -0.2001883653 -0.1652953654 -0.1464493655 -0.1391063656 -0.1387633657 -0.1333983658 -0.1158683659 -0.0802183660 -0.0578773661 -0.0257123662 0.0180523663 0.0420513664 0.0941133665 0.1696613666 0.2321713667 0.2856093668 0.3508323669 0.4178953670 0.4982443671 0.5847703672 0.6637233673 0.7464863674 0.8412433675 0.9205683676 0.9929763677 1.0304773678 1.0361823679 1.0439983680 1.0344443681 1.0025953682 0.9701803683 0.9258073684 0.8573033685 0.7641173686 0.6537773687 0.5423303688 0.4387273689 0.3451263690 0.2330683691 0.1075183692 -0.0132293693 -0.1377843694 -0.2419993695 -0.2973813696 -0.3275323697 -0.3445863698 -0.3535893699 -0.3567863700 -0.3657943701 -0.3656313702 -0.3506143703 -0.3481213704 -0.3302533705 -0.3094303706 -0.2819473707 -0.2435533708 -0.2090853709 -0.1921833710 -0.1891403711 -0.1708783712 -0.1550583713 -0.1423203714 -0.1446243715 -0.1616473716 -0.1692183717 -0.1757303718 -0.1704893719 -0.1639833720 -0.1680223721 -0.1797533722 -0.1735393723 -0.1727153724 -0.1612493725 -0.1473533726 -0.1230553727 -0.1038053728 -0.0961343729 -0.1054073730 -0.1116983731 -0.1097833732 -0.1092793733 -0.0948773734 -0.0866863735 -0.0846183736 -0.0927973737 -0.0879453738 -0.0957023739 -0.1268583740 -0.1414673741 -0.1608323742 -0.1593663743 -0.1683473744 -0.1755863745 -0.1610413746 -0.1484263747 -0.1488343748 -0.1364423749 -0.1362913750 -0.1441963751 -0.1427723752 -0.1295763753 -0.1293603754 -0.1344053755 -0.1328883756 -0.1332683757 -0.1246393758 -0.1250143759 -0.1375193760 -0.1384723761 -0.1413463762 -0.1406113763 -0.1394803764 -0.1375883765 -0.1346233766 -0.1339603767 -0.1263233768 -0.1095193769 -0.0922613770 -0.0661013771 -0.0534833772 -0.0559023773 -0.0501613774 -0.0606933775 -0.0799193776 -0.0966093777 -0.0962023778 -0.0850623779 -0.0706343780 -0.0615013781 -0.0353143782 -0.0266303783 -0.0346453784 -0.0348773785 -0.0548113786 -0.0735513787 -0.0695143788 -0.0641853789 -0.0619763790 -0.0621833791 -0.0710633792 -0.0820083793 -0.0798093794 -0.0729793795 -0.0660993796 -0.0721613797 -0.0768703798 -0.0748653799 -0.0698613800 -0.0506673801 -0.0391133802 -0.0218583803 -0.0101283804 -0.0033933805 -0.0010263806 -0.0019633807 -0.0164163808 -0.0256483809 -0.0178553810 -0.0161393811 -0.0186043812 -0.0145423813 -0.0007013814 0.0063953815 0.0260983816 0.0373103817 0.0341863818 0.0219323819 0.0246773820 0.0374603821 0.0343303822 0.0245303823 0.0007763824 0.0035773825 0.0135783826 0.0158963827 0.0083973828 0.0139133829 0.0123503830 0.0167053831 0.0049693832 -0.0080733833 -0.0111093834 -0.0046263835 0.0027453836 0.0058993837 0.0109723838 0.0151353839 0.0264723840 0.0319743841 0.0336363842 0.0446503843 0.0536823844 0.0691943845 0.0837903846 0.0865453847 0.0912993848 0.0928623849 0.0871313850 0.0871083851 0.0827953852 0.0650083853 0.0650993854 0.0706313855 0.0650313856 0.0632573857 0.0515073858 0.0390103859 0.0499003860 0.0592063861 0.0529433862 0.0523053863 0.0579373864 0.0582593865 0.0538153866 0.0496103867 0.0633973868 0.0618983869 0.0529283870 0.0494153871 0.0573093872 0.0633953873 0.0790203874 0.0877733875 0.0931353876 0.0981393877 0.0970803878 0.0952933879 0.0970193880 0.1093853881 0.1184883882 0.1135803883 0.1153353884 0.1241663885 0.1245803886 0.1175093887 0.1366083888 0.1564853889 0.1728283890 0.1544473891 0.1191883892 0.0777563893 0.0814493894 0.0978463895 0.1064563896 0.0983783897 0.0720053898 0.0647903899 0.0611033900 0.0561993901 0.0482873902 0.0467073903 0.0361833904 0.0291503905 0.0220913906 0.0278823907 0.0400963908 0.0332353909 0.0428813910 0.0457293911 0.0435253912 0.0508873913 0.0590613914 0.0715973915 0.0720043916 0.0754123917 0.0722693918 0.0641013919 0.0553623920 0.0453953921 0.0484963922 0.0500803923 0.0509353924 0.0515353925 0.0403843926 0.0463543927 0.0469933928 0.0447623929 0.0511853930 0.0348953931 0.0135723932 -0.0142253933 -0.0133043934 -0.0081593935 0.0006943936 0.0003703937 -0.0146873938 -0.0389433939 -0.0399243940 -0.0422583941 -0.0316193942 -0.0305573943 -0.0462533944 -0.0502003945 -0.0538673946 -0.0483543947 -0.0440863948 -0.0385803949 -0.0522953950 -0.0645833951 -0.0617573952 -0.0572523953 -0.0518833954 -0.0341563955 -0.0286113956 -0.0361633957 -0.0584063958 -0.0738513959 -0.0820723960 -0.0797563961 -0.0806273962 -0.0712853963 -0.0709473964 -0.0671263965 -0.0752893966 -0.0825123967 -0.0831763968 -0.0787253969 -0.0615333970 -0.0588553971 -0.0729053972 -0.0810243973 -0.0919493974 -0.0941313975 -0.0920863976 -0.0867433977 -0.0717463978 -0.0816943979 -0.0842763980 -0.0883133981 -0.0796723982 -0.0570883983 -0.0478933984 -0.0316893985 -0.0159873986 -0.0158623987 -0.0176473988 -0.0226933989 -0.0192393990 -0.0103833991 -0.0261633992 -0.0277563993 -0.0277483994 -0.0384773995 -0.0443913996 -0.0424023997 -0.0301973998 -0.0144653999 -0.0190364000 -0.0088974001 -0.0101054002 -0.0095844003 -0.0148384004 -0.0176074005 -0.0214974006 -0.0256184007 -0.0242784008 -0.0227484009 -0.0171334010 -0.0143584011 -0.0202664012 -0.0238314013 -0.0254534014 -0.0253104015 -0.0157404016 -0.0176034017 -0.0165924018 -0.0194654019 -0.0221734020 -0.0178714021 0.0071964022 0.0179044023 0.0185634024 0.0172754025 0.0143164026 0.0145104027 -0.0044584028 -0.0198124029 -0.0355564030 -0.0624754031 -0.0702464032 -0.0756654033 -0.0589604034 -0.0481624035 -0.0394964036 -0.0377494037 -0.0285954038 -0.0228204039 -0.0244484040 -0.0227364041 -0.0160584042 -0.0116734043 -0.0174094044 -0.0252824045 -0.0231134046 -0.0261434047 -0.0207194048 -0.0080614049 -0.0001424050 0.0003154051 -0.0162904052 -0.0226654053 -0.0109524054 -0.0131014055 -0.0372684056 -0.0561874057 -0.0754964058 -0.0819624059 -0.0796074060 -0.0857064061 -0.0986594062 -0.1097584063 -0.1188624064 -0.1100244065 -0.0990914066 -0.0933334067 -0.0951224068 -0.0937024069 -0.0890774070 -0.0800004071 -0.0841044072 -0.0901314073 -0.0782534074 -0.0724414075 -0.0488644076 -0.0402584077 -0.0362444078 -0.0435564079 -0.0701654080 -0.0892724081 -0.0951944082 -0.0911304083 -0.0888534084 -0.0763364085 -0.0893714086 -0.0991964087 -0.0961854088 -0.0896194089 -0.0795684090 -0.0528904091 -0.0513414092 -0.0718044093 -0.0825894094 -0.0918004095 -0.0877074096 -0.0831144097 -0.0716604098 -0.0680504099 -0.0561744100 -0.0491104101 -0.0410164102 -0.0349154103 -0.0263974104 -0.0072624105 0.0028404106 0.0047734107 0.0202074108 0.0318454109 0.0315404110 0.0363054111 0.0282054112 0.0261544113 0.0056244114 0.0023084115 0.0077564116 0.0010364117 -0.0155654118 -0.0367544119 -0.0343524120 -0.0253104121 -0.0156044122 -0.0120404123 -0.0179764124 -0.0129894125 0.0034684126 0.0084084127 0.0075934128 0.0077514129 0.0046894130 0.0113104131 0.0215164132 0.0260174133 0.0160634134 0.0191174135 0.0345284136 0.0571934137 0.0692884138 0.0560514139 0.0296704140 0.0212734141 0.0130144142 0.0022624143 0.0018634144 -0.0075484145 -0.0172184146 -0.0219584147 -0.0278704148 -0.0321464149 -0.0349534150 -0.0474224151 -0.0717404152 -0.1133294153 -0.1451084154 -0.1557934155 -0.1542254156 -0.1616764157 -0.1921174158 -0.2124164159 -0.2104464160 -0.2030944161 -0.1921684162 -0.1882234163 -0.1822984164 -0.1856194165 -0.2012794166 -0.2039364167 -0.2075464168 -0.2051714169 -0.2088814170 -0.2097404171 -0.2139084172 -0.2108194173 -0.1894414174 -0.1745724175 -0.1671614176 -0.1646114177 -0.1570324178 -0.1594314179 -0.1558114180 -0.1471754181 -0.1474224182 -0.1471664183 -0.1574704184 -0.1655514185 -0.1704514186 -0.1707424187 -0.1762614188 -0.1799324189 -0.1816694190 -0.1883814191 -0.1980784192 -0.1840654193 -0.1752094194 -0.1682484195 -0.1681174196 -0.1602564197 -0.1588664198 -0.1550874199 -0.1610944200 -0.1580814201 -0.1401474202 -0.1420914203 -0.1591384204 -0.1626214205 -0.1676464206 -0.1727874207 -0.1918214208 -0.2095504209 -0.2097144210 -0.2030134211 -0.2232284212 -0.2234344213 -0.2002944214 -0.1783824215 -0.1665244216 -0.1781184217 -0.1953964218 -0.2096074219 -0.2050984220 -0.1872854221 -0.1665224222 -0.1538724223 -0.1488074224 -0.1308664225 -0.0993054226 -0.0927664227 -0.0810164228 -0.0687624229 -0.0315724230 -0.0079114231 0.0287134232 0.0575124233 0.0860964234 0.1341274235 0.1889494236 0.2452574237 0.3048284238 0.3563304239 0.4352584240 0.5359704241 0.6238424242 0.6915234243 0.7672584244 0.8592624245 0.9600914246 1.0269864247 1.0621504248 1.0609344249 1.0759054250 1.0728014251 1.0223674252 0.9720874253 0.9218454254 0.8355504255 0.7527424256 0.6642494257 0.5518994258 0.4603324259 0.3729374260 0.2839024261 0.1943834262 0.0767824263 -0.0409034264 -0.1426884265 -0.2282064266 -0.2803504267 -0.3089854268 -0.3147604269 -0.3250394270 -0.3139564271 -0.3066004272 -0.2992874273 -0.2679254274 -0.2524114275 -0.2450354276 -0.2508404277 -0.2439224278 -0.2316114279 -0.2105474280 -0.1866174281 -0.1707754282 -0.1707574283 -0.1787114284 -0.1748024285 -0.1667954286 -0.1536944287 -0.1494464288 -0.1387474289 -0.1409794290 -0.1542634291 -0.1556454292 -0.1493774293 -0.1432904294 -0.1331934295 -0.1392854296 -0.1465254297 -0.1489234298 -0.1457394299 -0.1415534300 -0.1342084301 -0.1186284302 -0.1305364303 -0.1220874304 -0.1094694305 -0.1124934306 -0.1302204307 -0.1526734308 -0.1686374309 -0.1895864310 -0.1857414311 -0.1902424312 -0.1874284313 -0.1931974314 -0.2114024315 -0.2062554316 -0.1906924317 -0.1866644318 -0.1813324319 -0.1791464320 -0.1657964321 -0.1400444322 -0.1214554323 -0.1180434324 -0.1178854325 -0.1327294326 -0.1416294327 -0.1506554328 -0.1446984329 -0.1513904330 -0.1571434331 -0.1673134332 -0.1584554333 -0.1466644334 -0.1479564335 -0.1586464336 -0.1717074337 -0.1770584338 -0.1697554339 -0.1580784340 -0.1474954341 -0.1525174342 -0.1644434343 -0.1710464344 -0.1602044345 -0.1475264346 -0.1400074347 -0.1357404348 -0.1397254349 -0.1317794350 -0.1305574351 -0.1336934352 -0.1500334353 -0.1599464354 -0.1636704355 -0.1496824356 -0.1470284357 -0.1456084358 -0.1323734359 -0.1274174360 -0.1359604361 -0.1362274362 -0.1352194363 -0.1364264364 -0.1314834365 -0.1358244366 -0.1283464367 -0.1311414368 -0.1332974369 -0.1347994370 -0.1385384371 -0.1424314372 -0.1396214373 -0.1387644374 -0.1363514375 -0.1410474376 -0.1340084377 -0.1331594378 -0.1333834379 -0.1346254380 -0.1298954381 -0.1211584382 -0.1151484383 -0.1070894384 -0.1123894385 -0.1103044386 -0.1036254387 -0.0944134388 -0.0758004389 -0.0878854390 -0.0857274391 -0.0994424392 -0.0823874393 -0.0754234394 -0.0712234395 -0.0665944396 -0.0667864397 -0.0697614398 -0.0703834399 -0.0725334400 -0.0771154401 -0.0699664402 -0.0616754403 -0.0673264404 -0.0621994405 -0.0574474406 -0.0357914407 -0.0152524408 0.0030444409 0.0109794410 0.0054474411 -0.0117274412 -0.0139664413 -0.0302004414 -0.0331594415 -0.0197014416 -0.0311154417 -0.0333934418 -0.0374244419 -0.0391084420 -0.0393654421 -0.0320474422 -0.0357594423 -0.0336014424 -0.0288684425 -0.0287224426 -0.0198784427 -0.0083414428 0.0087974429 0.0234704430 0.0286454431 0.0302354432 0.0429114433 0.0418404434 0.0383784435 0.0397344436 0.0286524437 0.0271424438 0.0282744439 0.0360694440 0.0334894441 0.0465344442 0.0524364443 0.0439304444 0.0455734445 0.0300874446 0.0146774447 0.0093204448 0.0329634449 0.0536384450 0.0404674451 0.0275544452 0.0257844453 0.0305444454 0.0453874455 0.0456864456 0.0342954457 0.0372624458 0.0316274459 0.0373044460 0.0330834461 0.0287434462 0.0212664463 0.0191274464 0.0146444465 0.0043394466 0.0012874467 -0.0125944468 0.0016734469 0.0122284470 0.0003704471 -0.0155624472 -0.0044134473 0.0014814474 -0.0140704475 -0.0194794476 -0.0157454477 -0.0167494478 -0.0254734479 -0.0101034480 0.0039784481 0.0183204482 0.0136414483 0.0141454484 0.0198974485 0.0232064486 0.0169964487 0.0111104488 0.0125264489 0.0094714490 0.0113974491 -0.0031504492 -0.0147794493 -0.0115814494 -0.0175144495 -0.0167964496 -0.0022844497 -0.0037834498 -0.0122654499 -0.0239774500 -0.0244224501 -0.0322154502 -0.0268304503 -0.0122644504 -0.0126414505 -0.0278134506 -0.0369784507 -0.0423664508 -0.0410164509 -0.0526744510 -0.0598144511 -0.0557814512 -0.0650534513 -0.0755834514 -0.0711914515 -0.0519794516 -0.0427084517 -0.0371164518 -0.0381434519 -0.0260334520 -0.0223124521 -0.0336424522 -0.0395594523 -0.0601304524 -0.0515544525 -0.0497524526 -0.0419864527 -0.0425414528 -0.0485004529 -0.0596434530 -0.0704684531 -0.0863364532 -0.0917344533 -0.0986124534 -0.1147874535 -0.1163414536 -0.1040064537 -0.0834824538 -0.0656574539 -0.0547164540 -0.0481164541 -0.0364444542 -0.0431634543 -0.0562704544 -0.0559104545 -0.0499674546 -0.0336964547 -0.0134044548 0.0017724549 0.0199674550 0.0105804551 -0.0118754552 -0.0160134553 -0.0139094554 -0.0254854555 -0.0469024556 -0.0549364557 -0.0792854558 -0.0947904559 -0.1015464560 -0.1088844561 -0.0952354562 -0.0878944563 -0.0866894564 -0.0836144565 -0.1024364566 -0.1143344567 -0.1095894568 -0.0893714569 -0.0696294570 -0.0530994571 -0.0494394572 -0.0394594573 -0.0354314574 -0.0454614575 -0.0578654576 -0.0495234577 -0.0421834578 -0.0346724579 -0.0270064580 -0.0323824581 -0.0210584582 -0.0361234583 -0.0332004584 -0.0240824585 -0.0123714586 -0.0131204587 -0.0285464588 -0.0238134589 -0.0229294590 -0.0207484591 -0.0230884592 -0.0109474593 -0.0047994594 -0.0249434595 -0.0318614596 -0.0585664597 -0.0748884598 -0.0836794599 -0.0849254600 -0.0717414601 -0.0662524602 -0.0473884603 -0.0225924604 -0.0234764605 -0.0334774606 -0.0435154607 -0.0517114608 -0.0551844609 -0.0579454610 -0.0589004611 -0.0599604612 -0.0582504613 -0.0743924614 -0.0688394615 -0.0542234616 -0.0596844617 -0.0671504618 -0.0835344619 -0.0808424620 -0.0801694621 -0.0755874622 -0.0779424623 -0.0905714624 -0.0969744625 -0.1004674626 -0.0838644627 -0.0731934628 -0.0695064629 -0.0687704630 -0.0738744631 -0.0827434632 -0.0845364633 -0.0639314634 -0.0574504635 -0.0618004636 -0.0781994637 -0.0766504638 -0.0721324639 -0.0607084640 -0.0555134641 -0.0626484642 -0.0729724643 -0.0858244644 -0.1086884645 -0.1208604646 -0.1171144647 -0.1194364648 -0.1208234649 -0.1291814650 -0.1233384651 -0.1291504652 -0.1237144653 -0.1276514654 -0.1214394655 -0.1057614656 -0.0898304657 -0.0716624658 -0.0702784659 -0.0937984660 -0.0994374661 -0.0733884662 -0.0706084663 -0.0785294664 -0.0927224665 -0.0765514666 -0.0768334667 -0.0755684668 -0.0777374669 -0.0871984670 -0.1067014671 -0.1340074672 -0.1461014673 -0.1514884674 -0.1385304675 -0.1278104676 -0.1324554677 -0.1384324678 -0.1407404679 -0.1395184680 -0.1360364681 -0.1285734682 -0.1402014683 -0.1264864684 -0.1151384685 -0.1016544686 -0.0929754687 -0.0831944688 -0.0893524689 -0.0833254690 -0.0758424691 -0.0805964692 -0.0584644693 -0.0578144694 -0.0548544695 -0.0500004696 -0.0562284697 -0.0593694698 -0.0703234699 -0.0611714700 -0.0491724701 -0.0366434702 -0.0347414703 -0.0271564704 -0.0017544705 0.0097954706 -0.0036244707 -0.0282714708 -0.0293234709 -0.0227614710 -0.0073694711 -0.0168444712 -0.0120164713 -0.0051594714 -0.0123444715 -0.0178204716 -0.0223784717 -0.0316604718 -0.0243904719 -0.0245014720 -0.0211454721 -0.0005854722 0.0060274723 0.0229484724 0.0342084725 0.0359894726 0.0489964727 0.0467704728 0.0519344729 0.0483194730 0.0489844731 0.0321174732 0.0328244733 0.0148304734 0.0181224735 0.0145654736 -0.0004704737 -0.0004304738 -0.0038204739 -0.0103544740 -0.0289774741 -0.0217724742 -0.0197654743 -0.0346274744 -0.0463264745 -0.0547434746 -0.0753054747 -0.0986504748 -0.0983814749 -0.1029114750 -0.1194314751 -0.1259884752 -0.1196744753 -0.1129094754 -0.1177814755 -0.1384294756 -0.1514054757 -0.1420054758 -0.1485264759 -0.1664214760 -0.1683544761 -0.1441264762 -0.1445004763 -0.1489314764 -0.1532364765 -0.1532274766 -0.1563474767 -0.1533434768 -0.1620094769 -0.1790154770 -0.1918534771 -0.2068884772 -0.2015204773 -0.1964384774 -0.1959414775 -0.1922914776 -0.1900694777 -0.1985044778 -0.2197304779 -0.2329624780 -0.2345644781 -0.2420064782 -0.2417214783 -0.2328624784 -0.2270004785 -0.2237774786 -0.2265634787 -0.2301314788 -0.2124034789 -0.1822654790 -0.1714904791 -0.1667694792 -0.1498414793 -0.1377204794 -0.1389804795 -0.1460884796 -0.1597424797 -0.1771854798 -0.1884654799 -0.1966164800 -0.2137424801 -0.2330024802 -0.2524904803 -0.2470264804 -0.2318814805 -0.2384654806 -0.2459914807 -0.2491774808 -0.2499844809 -0.2494364810 -0.2595274811 -0.2872334812 -0.3026144813 -0.2950114814 -0.2813024815 -0.2502084816 -0.2426144817 -0.2438604818 -0.2520004819 -0.2539784820 -0.2177284821 -0.1801694822 -0.1471124823 -0.1050754824 -0.0490374825 -0.0101444826 0.0405964827 0.1005984828 0.1719534829 0.2376024830 0.3014384831 0.3563074832 0.4399204833 0.5306774834 0.6234334835 0.7052174836 0.7989334837 0.8710814838 0.9555134839 1.0172584840 1.0204264841 1.0162024842 1.0029344843 0.9863014844 0.9555424845 0.9117264846 0.8440524847 0.7701114848 0.6841324849 0.5731454850 0.4570804851 0.3567624852 0.2698334853 0.1665774854 0.0497004855 -0.0779504856 -0.1896594857 -0.2591164858 -0.3006484859 -0.3413774860 -0.3573094861 -0.3493294862 -0.3631144863 -0.3409574864 -0.3135404865 -0.2956644866 -0.2659684867 -0.2546644868 -0.2513184869 -0.2526884870 -0.2506564871 -0.2322334872 -0.2076624873 -0.1825984874 -0.1583394875 -0.1441044876 -0.1493104877 -0.1598384878 -0.1782444879 -0.2039074880 -0.2330954881 -0.2149354882 -0.2113084883 -0.2206544884 -0.2257284885 -0.2293204886 -0.2219744887 -0.2217254888 -0.2138934889 -0.1909484890 -0.1804504891 -0.1810974892 -0.1708494893 -0.1631374894 -0.1591184895 -0.1559644896 -0.1631514897 -0.1827144898 -0.1854564899 -0.1870714900 -0.1881844901 -0.1782904902 -0.1836144903 -0.1868854904 -0.1990644905 -0.2070424906 -0.2093504907 -0.2198964908 -0.2077654909 -0.2011044910 -0.1790934911 -0.1720274912 -0.1574744913 -0.1645234914 -0.1700694915 -0.1671304916 -0.1571514917 -0.1462624918 -0.1374804919 -0.1308144920 -0.1272734921 -0.1167764922 -0.1299634923 -0.1379414924 -0.1519694925 -0.1751354926 -0.1900394927 -0.1945274928 -0.1975024929 -0.1908164930 -0.1732794931 -0.1747684932 -0.1844294933 -0.1949604934 -0.1989314935 -0.1891344936 -0.1789014937 -0.1743804938 -0.1747314939 -0.1722204940 -0.1562024941 -0.1330004942 -0.1376774943 -0.1417404944 -0.1447934945 -0.1541794946 -0.1526414947 -0.1340494948 -0.1232004949 -0.1357334950 -0.1421514951 -0.1479584952 -0.1419034953 -0.1362974954 -0.1433714955 -0.1396514956 -0.1463044957 -0.1534214958 -0.1642164959 -0.1671124960 -0.1717074961 -0.1606274962 -0.1452714963 -0.1374894964 -0.1251974965 -0.1280004966 -0.1328294967 -0.1376534968 -0.1312764969 -0.1212544970 -0.1139294971 -0.1185854972 -0.1037084973 -0.1053264974 -0.1073984975 -0.1022084976 -0.0987304977 -0.0989304978 -0.1059654979 -0.1122764980 -0.1035474981 -0.0945474982 -0.0968614983 -0.0985424984 -0.0917244985 -0.0842094986 -0.0791044987 -0.0705104988 -0.0713164989 -0.0891134990 -0.0982254991 -0.0998714992 -0.0864384993 -0.0898244994 -0.1058434995 -0.1066294996 -0.1090144997 -0.1228354998 -0.1351464999 -0.1303135000 -0.1179755001 -0.0888925002 -0.0666705003 -0.0554165004 -0.0353375005 -0.0383325006 -0.0476095007 -0.0573835008 -0.0486535009 -0.0571105010 -0.0651685011 -0.0701205012 -0.0683975013 -0.0719235014 -0.0845085015 -0.0742515016 -0.0699245017 -0.0652795018 -0.0672655019 -0.0641295020 -0.0653895021 -0.0496845022 -0.0325135023 -0.0298955024 -0.0259785025 -0.0326395026 -0.0331065027 -0.0256455028 -0.0073485029 0.0139755030 0.0157695031 0.0205925032 0.0238645033 0.0255285034 0.0256695035 0.0121175036 -0.0039265037 -0.0081915038 -0.0035645039 0.0098155040 0.0225695041 0.0442225042 0.0234425043 0.0043735044 -0.0209935045 -0.0284225046 -0.0250765047 -0.0132085048 -0.0139465049 -0.0191845050 -0.0235995051 -0.0287875052 -0.0234985053 -0.0279585054 -0.0382415055 -0.0426485056 -0.0380695057 -0.0382865058 -0.0261825059 -0.0138525060 -0.0145835061 0.0012705062 0.0025235063 0.0014765064 -0.0057255065 -0.0107045066 -0.0045085067 -0.0013035068 0.0058285069 0.0129895070 0.0134625071 0.0175735072 0.0284625073 0.0377735074 0.0452945075 0.0465835076 0.0406215077 0.0335155078 0.0182955079 0.0228195080 0.0337865081 0.0288685082 0.0129405083 0.0103935084 0.0054885085 -0.0052745086 -0.0128065087 -0.0191495088 -0.0212705089 -0.0189725090 -0.0029105091 0.0012715092 -0.0112945093 -0.0330045094 -0.0561455095 -0.0652615096 -0.0694955097 -0.0748695098 -0.0764845099 -0.0786085100 -0.0826545101 -0.0750325102 -0.0829185103 -0.0859365104 -0.0877985105 -0.0959365106 -0.1011625107 -0.0973905108 -0.0894415109 -0.0849645110 -0.0824685111 -0.0874675112 -0.0927255113 -0.0945765114 -0.1012885115 -0.1014315116 -0.0962225117 -0.0957965118 -0.1034005119 -0.1074685120 -0.1135805121 -0.1123145122 -0.1149865123 -0.1213265124 -0.1351145125 -0.1477975126 -0.1581555127 -0.1600155128 -0.1500725129 -0.1478125130 -0.1555585131 -0.1626355132 -0.1496285133 -0.1367205134 -0.1240695135 -0.1201865136 -0.1142825137 -0.1165485138 -0.1183395139 -0.1042455140 -0.0920325141 -0.0724795142 -0.0691035143 -0.0738135144 -0.0705335145 -0.0708075146 -0.0614495147 -0.0482665148 -0.0478675149 -0.0436075150 -0.0536365151 -0.0870825152 -0.1123295153 -0.1293665154 -0.1261865155 -0.1151785156 -0.1174835157 -0.1232845158 -0.1319825159 -0.1282675160 -0.1180525161 -0.0922895162 -0.0986895163 -0.0933535164 -0.0763755165 -0.0554375166 -0.0374485167 -0.0362565168 -0.0404605169 -0.0613515170 -0.0689695171 -0.0763015172 -0.0795625173 -0.0865745174 -0.0771695175 -0.0675995176 -0.0668995177 -0.0811875178 -0.0978435179 -0.1095815180 -0.1023785181 -0.0912825182 -0.0881245183 -0.0931345184 -0.1065405185 -0.1121485186 -0.1169735187 -0.1149425188 -0.1147045189 -0.0995615190 -0.0795415191 -0.0875845192 -0.0958425193 -0.1120525194 -0.1119535195 -0.0956975196 -0.0962325197 -0.1075935198 -0.1050945199 -0.1013985200 -0.0984535201 -0.0792995202 -0.0917765203 -0.1001445204 -0.1046775205 -0.1052395206 -0.1009095207 -0.0936885208 -0.0802965209 -0.0761165210 -0.0792455211 -0.0986875212 -0.0946425213 -0.0868785214 -0.0871455215 -0.0875825216 -0.1010995217 -0.1136685218 -0.1245245219 -0.1142335220 -0.0846345221 -0.0626605222 -0.0760485223 -0.0969725224 -0.1056415225 -0.1138865226 -0.1167925227 -0.1123995228 -0.1015115229 -0.0876195230 -0.0849565231 -0.0906735232 -0.0971185233 -0.1081985234 -0.1077715235 -0.1000535236 -0.1059855237 -0.1115205238 -0.1118235239 -0.1113445240 -0.1237725241 -0.1238625242 -0.1151655243 -0.1136825244 -0.1074685245 -0.1002435246 -0.1030315247 -0.1138715248 -0.1096215249 -0.1018855250 -0.0850575251 -0.0804785252 -0.0767025253 -0.0898385254 -0.0879225255 -0.0833085256 -0.0930185257 -0.1030295258 -0.1204635259 -0.1376685260 -0.1441765261 -0.1385515262 -0.1401345263 -0.1287155264 -0.1321605265 -0.1300385266 -0.1292755267 -0.1358745268 -0.1467225269 -0.1535105270 -0.1547705271 -0.1520235272 -0.1420255273 -0.1410865274 -0.1374335275 -0.1195715276 -0.1086295277 -0.0986305278 -0.1006825279 -0.1070585280 -0.0991705281 -0.0794205282 -0.0709725283 -0.0774315284 -0.0944955285 -0.1175975286 -0.1255665287 -0.1083575288 -0.1028635289 -0.0968335290 -0.0968965291 -0.1167025292 -0.1211505293 -0.1186975294 -0.1136995295 -0.1067695296 -0.0991065297 -0.0927705298 -0.0828645299 -0.0736275300 -0.0584065301 -0.0315225302 -0.0320435303 -0.0234845304 -0.0174625305 -0.0173465306 -0.0099245307 0.0028705308 0.0161425309 0.0301265310 0.0301655311 0.0305755312 0.0344225313 0.0212245314 0.0106005315 0.0259235316 0.0219865317 0.0287315318 0.0350555319 0.0447225320 0.0523835321 0.0677045322 0.0715955323 0.0725105324 0.0747935325 0.0550375326 0.0584155327 0.0629665328 0.0677815329 0.0611015330 0.0482965331 0.0437385332 0.0385675333 0.0363925334 0.0209355335 0.0196715336 0.0154845337 -0.0056185338 -0.0227025339 -0.0320065340 -0.0389275341 -0.0498835342 -0.0720885343 -0.0892385344 -0.1011575345 -0.1234225346 -0.1430105347 -0.1540035348 -0.1613805349 -0.1729145350 -0.1871885351 -0.1977205352 -0.2012065353 -0.1978365354 -0.1916585355 -0.1949675356 -0.2046685357 -0.2105815358 -0.2276695359 -0.2281405360 -0.2134365361 -0.1901065362 -0.1855565363 -0.1837295364 -0.1807185365 -0.1763695366 -0.1739015367 -0.1675935368 -0.1585475369 -0.1425765370 -0.1462175371 -0.1628605372 -0.1690005373 -0.1965715374 -0.2173405375 -0.2273215376 -0.2311615377 -0.2344755378 -0.2320855379 -0.2401435380 -0.2521255381 -0.2426975382 -0.2234635383 -0.2106175384 -0.2005375385 -0.2013595386 -0.1885755387 -0.1766825388 -0.1589355389 -0.1552155390 -0.1720335391 -0.1906675392 -0.1994175393 -0.2139685394 -0.2258025395 -0.2346415396 -0.2328695397 -0.2418815398 -0.2523505399 -0.2563605400 -0.2634065401 -0.2602595402 -0.2586945403 -0.2671365404 -0.2662215405 -0.2683515406 -0.2612595407 -0.2596435408 -0.2448985409 -0.2249755410 -0.2183755411 -0.2142975412 -0.1968995413 -0.1856755414 -0.1678905415 -0.1470445416 -0.1193105417 -0.0859135418 -0.0494045419 -0.0098025420 0.0234005421 0.0633805422 0.1182575423 0.1914685424 0.2502165425 0.3059315426 0.3707255427 0.4497655428 0.5215575429 0.6020935430 0.6888525431 0.7886605432 0.8934155433 0.9917075434 1.0483685435 1.0480035436 1.0265365437 1.0068275438 0.9783955439 0.9412645440 0.8939685441 0.8296885442 0.7485315443 0.6659155444 0.5650135445 0.4492245446 0.3386305447 0.2383715448 0.1229285449 -0.0077325450 -0.1441535451 -0.2515375452 -0.3220215453 -0.3670585454 -0.4098645455 -0.4178845456 -0.4152435457 -0.4151175458 -0.4160145459 -0.4019095460 -0.3702465461 -0.3477945462 -0.3303665463 -0.2984425464 -0.2687345465 -0.2457125466 -0.2211745467 -0.2018735468 -0.1892535469 -0.1753105470 -0.1706045471 -0.1644035472 -0.1649565473 -0.1798725474 -0.1845475475 -0.1866255476 -0.1984215477 -0.2052795478 -0.1938295479 -0.1841135480 -0.1935765481 -0.2009125482 -0.2017975483 -0.1925155484 -0.1855425485 -0.1810955486 -0.1707265487 -0.1729715488 -0.1571105489 -0.1510455490 -0.1573205491 -0.1612745492 -0.1753095493 -0.1912555494 -0.2007815495 -0.1998215496 -0.2169815497 -0.2378635498 -0.2452945499 -0.2554405500 -0.2417765501 -0.2189345502 -0.2184335503 -0.2123225504 -0.2127825505 -0.1917095506 -0.1803305507 -0.1848915508 -0.1744405509 -0.1687365510 -0.1822755511 -0.2044555512 -0.1958365513 -0.1964895514 -0.1903875515 -0.2018045516 -0.2156805517 -0.2339225518 -0.2476045519 -0.2450465520 -0.2157795521 -0.2103815522 -0.2202175523 -0.2130975524 -0.2009005525 -0.1871905526 -0.1828625527 -0.1858645528 -0.1810135529 -0.1759165530 -0.1730235531 -0.1737795532 -0.1628925533 -0.1566595534 -0.1433365535 -0.1395035536 -0.1424055537 -0.1502185538 -0.1542265539 -0.1708905540 -0.1737885541 -0.1574615542 -0.1531475543 -0.1644595544 -0.1830285545 -0.1801425546 -0.1704235547 -0.1635745548 -0.1642135549 -0.1678175550 -0.1727785551 -0.1685705552 -0.1480025553 -0.1355345554 -0.1356365555 -0.1331255556 -0.1254905557 -0.1351295558 -0.1495045559 -0.1651985560 -0.1718445561 -0.1559675562 -0.1687275563 -0.1656105564 -0.1580795565 -0.1612365566 -0.1655175567 -0.1564525568 -0.1425195569 -0.1350985570 -0.1205305571 -0.1242875572 -0.1272195573 -0.1258665574 -0.1367995575 -0.1369565576 -0.1239425577 -0.1122655578 -0.1054815579 -0.1082385580 -0.1102155581 -0.1099545582 -0.1106135583 -0.0996545584 -0.1005075585 -0.1002295586 -0.1172095587 -0.1249305588 -0.1278235589 -0.1132245590 -0.1034385591 -0.1119015592 -0.1154345593 -0.1025475594 -0.0937835595 -0.0820565596 -0.0849545597 -0.0929775598 -0.0896835599 -0.0797385600 -0.0608515601 -0.0436095602 -0.0472305603 -0.0512495604 -0.0591755605 -0.0581465606 -0.0626255607 -0.0621565608 -0.0612105609 -0.0631375610 -0.0702235611 -0.0638535612 -0.0687635613 -0.0653565614 -0.0580495615 -0.0516255616 -0.0515475617 -0.0522085618 -0.0450895619 -0.0308205620 -0.0191175621 -0.0286245622 -0.0426615623 -0.0448965624 -0.0350005625 -0.0282815626 -0.0233645627 -0.0259315628 -0.0285565629 -0.0226415630 -0.0344705631 -0.0533705632 -0.0479685633 -0.0345205634 -0.0372665635 -0.0408025636 -0.0504125637 -0.0563315638 -0.0499255639 -0.0517535640 -0.0515255641 -0.0479315642 -0.0523915643 -0.0487215644 -0.0407655645 -0.0480205646 -0.0492985647 -0.0584455648 -0.0601635649 -0.0659335650 -0.0660645651 -0.0698505652 -0.0578335653 -0.0541335654 -0.0468315655 -0.0523465656 -0.0517825657 -0.0512185658 -0.0418895659 -0.0282745660 -0.0000455661 0.0160905662 0.0286455663 0.0257005664 0.0232775665 0.0297295666 0.0300915667 0.0263775668 0.0257705669 0.0207085670 0.0088425671 -0.0191235672 -0.0276945673 -0.0289215674 -0.0307905675 -0.0456085676 -0.0703665677 -0.0790335678 -0.0787535679 -0.0859315680 -0.0661935681 -0.0622315682 -0.0775405683 -0.0840745684 -0.0778635685 -0.0506175686 -0.0293695687 -0.0201745688 -0.0119095689 -0.0161905690 -0.0234105691 -0.0348925692 -0.0431585693 -0.0482645694 -0.0581875695 -0.0572225696 -0.0543445697 -0.0515005698 -0.0678115699 -0.0876565700 -0.0966325701 -0.1013955702 -0.0974025703 -0.0805625704 -0.0868625705 -0.0999675706 -0.0988715707 -0.0975975708 -0.0890065709 -0.0847135710 -0.0831305711 -0.0896235712 -0.0887745713 -0.0847185714 -0.0775265715 -0.0715945716 -0.0799885717 -0.0887375718 -0.0890235719 -0.0812525720 -0.0830165721 -0.0809255722 -0.0743535723 -0.0670945724 -0.0869945725 -0.0975725726 -0.0936725727 -0.0851915728 -0.0768915729 -0.0763375730 -0.0739395731 -0.0671125732 -0.0645425733 -0.0665105734 -0.0612615735 -0.0493795736 -0.0561155737 -0.0636615738 -0.0753185739 -0.0795655740 -0.0860015741 -0.0851845742 -0.0843765743 -0.0752145744 -0.0773515745 -0.0820975746 -0.0960915747 -0.0970475748 -0.0895895749 -0.0771915750 -0.0782385751 -0.0821915752 -0.0778395753 -0.0856225754 -0.0979835755 -0.0917215756 -0.0803045757 -0.0701175758 -0.0686185759 -0.0643855760 -0.0710575761 -0.0791675762 -0.0718865763 -0.0607095764 -0.0691045765 -0.0561715766 -0.0483385767 -0.0511205768 -0.0609745769 -0.0732585770 -0.0862975771 -0.0935555772 -0.0998905773 -0.1058645774 -0.0960865775 -0.0755505776 -0.0619255777 -0.0777915778 -0.0907715779 -0.0855665780 -0.0718865781 -0.0562795782 -0.0538715783 -0.0560595784 -0.0541745785 -0.0591495786 -0.0612345787 -0.0697735788 -0.0770755789 -0.0983825790 -0.1199475791 -0.1232075792 -0.1010365793 -0.1020565794 -0.1149725795 -0.1328945796 -0.1416275797 -0.1478845798 -0.1514125799 -0.1490205800 -0.1384955801 -0.1424305802 -0.1439635803 -0.1344745804 -0.1372465805 -0.1271455806 -0.1143375807 -0.1000735808 -0.0965675809 -0.0909705810 -0.0854585811 -0.0854045812 -0.0756415813 -0.0767675814 -0.0774855815 -0.0869235816 -0.0909195817 -0.0882355818 -0.0986795819 -0.0951295820 -0.0954465821 -0.0862935822 -0.0988795823 -0.1046435824 -0.1069165825 -0.1125965826 -0.1278655827 -0.1379675828 -0.1390945829 -0.1343565830 -0.1378675831 -0.1389295832 -0.1382915833 -0.1444655834 -0.1340695835 -0.1241495836 -0.1204815837 -0.1257815838 -0.1238385839 -0.1195365840 -0.1147735841 -0.1162815842 -0.1193595843 -0.1155555844 -0.1203225845 -0.1246845846 -0.1269355847 -0.1284155848 -0.1373785849 -0.1329595850 -0.1332595851 -0.1195205852 -0.1123975853 -0.1002765854 -0.1036265855 -0.1113385856 -0.1290365857 -0.1473015858 -0.1578195859 -0.1574155860 -0.1479765861 -0.1442715862 -0.1376925863 -0.1199175864 -0.1265645865 -0.1328335866 -0.1372015867 -0.1411755868 -0.1411445869 -0.1443375870 -0.1568965871 -0.1600465872 -0.1543685873 -0.1521215874 -0.1416085875 -0.1315315876 -0.1313135877 -0.1273495878 -0.1271635879 -0.1194615880 -0.1060615881 -0.1017225882 -0.1058815883 -0.1063235884 -0.1068145885 -0.0947365886 -0.0767665887 -0.0626075888 -0.0528315889 -0.0588145890 -0.0827965891 -0.1060525892 -0.1171485893 -0.1242745894 -0.1196105895 -0.1076985896 -0.0937725897 -0.0800285898 -0.0817985899 -0.0836185900 -0.0871745901 -0.0711445902 -0.0509375903 -0.0383665904 -0.0252815905 -0.0111975906 0.0050445907 0.0215485908 0.0335495909 0.0374885910 0.0229645911 0.0085875912 0.0017215913 -0.0018415914 0.0017645915 0.0080875916 0.0080335917 0.0035785918 0.0075785919 0.0076925920 -0.0015895921 -0.0027905922 -0.0072095923 -0.0266005924 -0.0368105925 -0.0334045926 -0.0393285927 -0.0526245928 -0.0542325929 -0.0719075930 -0.0882385931 -0.1087945932 -0.1223545933 -0.1492215934 -0.1655825935 -0.1878725936 -0.2091155937 -0.2192175938 -0.2291635939 -0.2231155940 -0.2263915941 -0.2533375942 -0.2670975943 -0.2473065944 -0.2337365945 -0.2259335946 -0.2068745947 -0.1866815948 -0.1784185949 -0.1899915950 -0.1921635951 -0.1906735952 -0.1864675953 -0.1799905954 -0.1835365955 -0.1776065956 -0.1792445957 -0.1863215958 -0.1857405959 -0.2055305960 -0.2148495961 -0.2278595962 -0.2435125963 -0.2412655964 -0.2527405965 -0.2413765966 -0.2380925967 -0.2450125968 -0.2392595969 -0.2248545970 -0.2167185971 -0.2047835972 -0.2021995973 -0.1936135974 -0.1834995975 -0.1605005976 -0.1497515977 -0.1411615978 -0.1376025979 -0.1430215980 -0.1624365981 -0.1858305982 -0.2119535983 -0.2320525984 -0.2495495985 -0.2477095986 -0.2613215987 -0.2644295988 -0.2701405989 -0.2665195990 -0.2685925991 -0.2704415992 -0.2694065993 -0.2623405994 -0.2459275995 -0.2450035996 -0.2488675997 -0.2515405998 -0.2359565999 -0.2180636000 -0.1908166001 -0.1800886002 -0.1684696003 -0.1550146004 -0.1349386005 -0.1033016006 -0.0667056007 -0.0190446008 0.0266776009 0.0704406010 0.1292066011 0.1928196012 0.2558186013 0.3131786014 0.3840236015 0.4593096016 0.5335406017 0.6205196018 0.7091746019 0.7954736020 0.8864286021 0.9321966022 0.9542716023 0.9657286024 0.9595206025 0.9247776026 0.8910906027 0.8487496028 0.7849086029 0.6996706030 0.5980706031 0.5019746032 0.4298866033 0.3567026034 0.2534226035 0.1068486036 -0.0446926037 -0.1835746038 -0.2770416039 -0.3292746040 -0.3573796041 -0.3792706042 -0.3974836043 -0.4109186044 -0.4225546045 -0.4071496046 -0.3789686047 -0.3595586048 -0.3455916049 -0.3287956050 -0.3199826051 -0.3131636052 -0.2937476053 -0.2667986054 -0.2373226055 -0.2185746056 -0.1923256057 -0.1930916058 -0.1842826059 -0.1662656060 -0.1563286061 -0.1565566062 -0.1616306063 -0.1625556064 -0.1823666065 -0.1998246066 -0.2011386067 -0.1957456068 -0.1881596069 -0.1899176070 -0.2036206071 -0.2150666072 -0.2134676073 -0.2117206074 -0.1987176075 -0.1956556076 -0.1883196077 -0.1953036078 -0.2121586079 -0.2154426080 -0.2106696081 -0.2121666082 -0.2108496083 -0.2099346084 -0.1966196085 -0.1937696086 -0.1916226087 -0.1955696088 -0.2020046089 -0.1982856090 -0.2067856091 -0.2010506092 -0.1980346093 -0.1984006094 -0.1948476095 -0.1764396096 -0.1809016097 -0.1748426098 -0.1779076099 -0.1788106100 -0.1832806101 -0.1978916102 -0.2018186103 -0.2145256104 -0.2314286105 -0.2355516106 -0.2412286107 -0.2418666108 -0.2337976109 -0.2122386110 -0.2153626111 -0.2084676112 -0.1922416113 -0.1950816114 -0.1894496115 -0.1802246116 -0.1890076117 -0.1943716118 -0.1960056119 -0.2027506120 -0.1965316121 -0.1961696122 -0.1971146123 -0.1871046124 -0.1738056125 -0.1604476126 -0.1575026127 -0.1504366128 -0.1515546129 -0.1559666130 -0.1656646131 -0.1857126132 -0.1925316133 -0.1902426134 -0.1910536135 -0.1876246136 -0.1694036137 -0.1588806138 -0.1517416139 -0.1449136140 -0.1484746141 -0.1454576142 -0.1515646143 -0.1588016144 -0.1630876145 -0.1678746146 -0.1797966147 -0.1844156148 -0.1860556149 -0.1917666150 -0.2034126151 -0.2058696152 -0.1993306153 -0.1996746154 -0.1908676155 -0.1933566156 -0.1924256157 -0.1984596158 -0.1751156159 -0.1673586160 -0.1533716161 -0.1523536162 -0.1482036163 -0.1531476164 -0.1753206165 -0.1623646166 -0.1530716167 -0.1331006168 -0.1228156169 -0.1172426170 -0.1181596171 -0.1063086172 -0.0937116173 -0.0960566174 -0.0931236175 -0.0931916176 -0.0974086177 -0.1000746178 -0.1008106179 -0.1046026180 -0.1017066181 -0.1114336182 -0.1178256183 -0.1212606184 -0.1140276185 -0.1119066186 -0.1017906187 -0.0854056188 -0.0951356189 -0.0939776190 -0.0836456191 -0.0727846192 -0.0773006193 -0.0887616194 -0.1028316195 -0.1116956196 -0.1084376197 -0.0993266198 -0.0919896199 -0.0874506200 -0.0720326201 -0.0691286202 -0.0668726203 -0.0537286204 -0.0580616205 -0.0516986206 -0.0495536207 -0.0413446208 -0.0394186209 -0.0427186210 -0.0328836211 -0.0424876212 -0.0753646213 -0.1110306214 -0.1331146215 -0.1457996216 -0.1461926217 -0.1366126218 -0.1207546219 -0.1037226220 -0.0839196221 -0.0808096222 -0.0705776223 -0.0657116224 -0.0585666225 -0.0649266226 -0.0796386227 -0.0843256228 -0.0752316229 -0.0751986230 -0.0857756231 -0.0874676232 -0.0880836233 -0.0911456234 -0.0883346235 -0.0919146236 -0.0791086237 -0.0683626238 -0.0595056239 -0.0537606240 -0.0496246241 -0.0466176242 -0.0369366243 -0.0490356244 -0.0711846245 -0.0750506246 -0.0553306247 -0.0494906248 -0.0376186249 -0.0504196250 -0.0693486251 -0.0588616252 -0.0507686253 -0.0566526254 -0.0563016255 -0.0581316256 -0.0635396257 -0.0831556258 -0.1049796259 -0.1143746260 -0.1099336261 -0.1112176262 -0.1144006263 -0.1158556264 -0.1197216265 -0.1054926266 -0.0996766267 -0.0955446268 -0.0890116269 -0.0946466270 -0.1098166271 -0.1189526272 -0.1259016273 -0.1223446274 -0.1082206275 -0.1121266276 -0.1236576277 -0.1376366278 -0.1462266279 -0.1389126280 -0.1263536281 -0.1321176282 -0.1323196283 -0.1432196284 -0.1607996285 -0.1683706286 -0.1802496287 -0.1695346288 -0.1559966289 -0.1421066290 -0.1411906291 -0.1256986292 -0.1235546293 -0.1385646294 -0.1388246295 -0.1291036296 -0.1191656297 -0.1279806298 -0.1318286299 -0.1362646300 -0.1359606301 -0.1424396302 -0.1477276303 -0.1479546304 -0.1509526305 -0.1438756306 -0.1368926307 -0.1349796308 -0.1338276309 -0.1198756310 -0.1224686311 -0.1141226312 -0.0988676313 -0.1046386314 -0.1036746315 -0.1008806316 -0.1061386317 -0.1025026318 -0.1062906319 -0.0950466320 -0.0793896321 -0.0827516322 -0.0730416323 -0.0622596324 -0.0701096325 -0.0716386326 -0.0969436327 -0.1109646328 -0.1174056329 -0.1227606330 -0.1284676331 -0.1231566332 -0.1149856333 -0.1200096334 -0.1345646335 -0.1436276336 -0.1491016337 -0.1460186338 -0.1306276339 -0.1363716340 -0.1297416341 -0.1460316342 -0.1450226343 -0.1306106344 -0.1224336345 -0.1035176346 -0.0919906347 -0.0888726348 -0.0979866349 -0.1099716350 -0.1224236351 -0.1121236352 -0.0913546353 -0.0962566354 -0.0952006355 -0.0851376356 -0.0878896357 -0.0943596358 -0.1006326359 -0.1079686360 -0.0986806361 -0.1039056362 -0.1153066363 -0.1247156364 -0.1317696365 -0.1395556366 -0.1423166367 -0.1452396368 -0.1563406369 -0.1584666370 -0.1734076371 -0.1821066372 -0.1809566373 -0.1781476374 -0.1860306375 -0.1854696376 -0.1821416377 -0.1787576378 -0.1711846379 -0.1484596380 -0.1286906381 -0.1148516382 -0.1144996383 -0.1074296384 -0.1133146385 -0.1193496386 -0.1119476387 -0.1205086388 -0.1292806389 -0.1373396390 -0.1226756391 -0.1103876392 -0.1329616393 -0.1466096394 -0.1556326395 -0.1647766396 -0.1835446397 -0.1984366398 -0.1850946399 -0.1683346400 -0.1500736401 -0.1491386402 -0.1490026403 -0.1414426404 -0.1421796405 -0.1385226406 -0.1330466407 -0.1233446408 -0.1218766409 -0.1279206410 -0.1356476411 -0.1302906412 -0.1244196413 -0.1342646414 -0.1440866415 -0.1425336416 -0.1509676417 -0.1557186418 -0.1482476419 -0.1411956420 -0.1283266421 -0.1443516422 -0.1486676423 -0.1610296424 -0.1811846425 -0.1925056426 -0.1816716427 -0.1664046428 -0.1592986429 -0.1557686430 -0.1461036431 -0.1236366432 -0.1250026433 -0.1184696434 -0.1122986435 -0.1231126436 -0.1282196437 -0.1258776438 -0.1314646439 -0.1375346440 -0.1337646441 -0.1227866442 -0.1079316443 -0.0969006444 -0.0894076445 -0.0728116446 -0.0617896447 -0.0540736448 -0.0462846449 -0.0458716450 -0.0631686451 -0.0715666452 -0.0837626453 -0.1000946454 -0.1048946455 -0.1068556456 -0.1073506457 -0.1246906458 -0.1142926459 -0.1007306460 -0.0936736461 -0.0997226462 -0.1141466463 -0.1205586464 -0.1145576465 -0.1033756466 -0.0895556467 -0.0787066468 -0.0713456469 -0.0708506470 -0.0875266471 -0.0747806472 -0.0613766473 -0.0597636474 -0.0544266475 -0.0382386476 -0.0327676477 -0.0325136478 -0.0410546479 -0.0470846480 -0.0523356481 -0.0554056482 -0.0514906483 -0.0480666484 -0.0405416485 -0.0479186486 -0.0844966487 -0.0996426488 -0.1056666489 -0.1097876490 -0.1222256491 -0.1363776492 -0.1490826493 -0.1729456494 -0.1886726495 -0.2094036496 -0.2289916497 -0.2542196498 -0.2689096499 -0.2779426500 -0.2671616501 -0.2671786502 -0.2691126503 -0.2722716504 -0.2678186505 -0.2744596506 -0.2861716507 -0.2880096508 -0.2760046509 -0.2691676510 -0.2775956511 -0.2626616512 -0.2652916513 -0.2622706514 -0.2545666515 -0.2396366516 -0.2196766517 -0.2138016518 -0.2181256519 -0.2217486520 -0.2186376521 -0.2274226522 -0.2351326523 -0.2328826524 -0.2515656525 -0.2775616526 -0.2845006527 -0.2811086528 -0.2791376529 -0.2693896530 -0.2738496531 -0.2698896532 -0.2625386533 -0.2527766534 -0.2458426535 -0.2435066536 -0.2482926537 -0.2476196538 -0.2338606539 -0.2323006540 -0.2329996541 -0.2145876542 -0.2319936543 -0.2601476544 -0.2936946545 -0.3147206546 -0.3365566547 -0.3356406548 -0.3274856549 -0.3307226550 -0.3232496551 -0.3184376552 -0.3134046553 -0.3212956554 -0.3275786555 -0.3342856556 -0.3362156557 -0.3250486558 -0.3093746559 -0.2986326560 -0.2749646561 -0.2730016562 -0.2675946563 -0.2535346564 -0.2412746565 -0.2286846566 -0.1968686567 -0.1700606568 -0.1515966569 -0.1079876570 -0.0730616571 -0.0081866572 0.0294736573 0.0546726574 0.1058176575 0.1767246576 0.2444476577 0.3011666578 0.3781766579 0.4659536580 0.5383066581 0.6085886582 0.6939626583 0.7876746584 0.8513286585 0.8951156586 0.9179956587 0.9077966588 0.8852396589 0.8478636590 0.7818776591 0.7099496592 0.6069436593 0.4916446594 0.3944826595 0.3253016596 0.2491716597 0.1542886598 0.0399486599 -0.0833886600 -0.2139446601 -0.3344226602 -0.4037386603 -0.4407416604 -0.4719416605 -0.4832586606 -0.4758416607 -0.4699456608 -0.4689086609 -0.4512066610 -0.4385976611 -0.4203296612 -0.3974056613 -0.3748706614 -0.3660996615 -0.3450486616 -0.3144606617 -0.2779886618 -0.2602336619 -0.2507006620 -0.2476526621 -0.2539056622 -0.2565606623 -0.2587016624 -0.2671046625 -0.2519646626 -0.2626776627 -0.2717026628 -0.2985076629 -0.3216116630 -0.3307226631 -0.3349476632 -0.3310666633 -0.3198396634 -0.3103206635 -0.2921376636 -0.2837326637 -0.2845206638 -0.2629526639 -0.2644826640 -0.2594366641 -0.2468006642 -0.2379326643 -0.2282506644 -0.2288986645 -0.2304426646 -0.2466116647 -0.2541306648 -0.2646306649 -0.2806796650 -0.2959096651 -0.2912376652 -0.2871546653 -0.2880596654 -0.2866066655 -0.2840316656 -0.2864226657 -0.2769156658 -0.2557846659 -0.2564306660 -0.2532546661 -0.2534336662 -0.2526236663 -0.2546086664 -0.2589366665 -0.2565766666 -0.2736216667 -0.2830846668 -0.2727876669 -0.2613646670 -0.2743896671 -0.2645976672 -0.2681966673 -0.2692336674 -0.2679686675 -0.2692446676 -0.2707966677 -0.2714766678 -0.2633756679 -0.2518226680 -0.2392676681 -0.2530516682 -0.2610826683 -0.2474676684 -0.2481106685 -0.2583336686 -0.2525506687 -0.2600256688 -0.2647436689 -0.2614056690 -0.2675416691 -0.2477526692 -0.2420286693 -0.2381396694 -0.2440486695 -0.2642996696 -0.2763596697 -0.2708706698 -0.2597896699 -0.2363926700 -0.2231606701 -0.2475396702 -0.2456096703 -0.2376896704 -0.2359136705 -0.2198336706 -0.2120646707 -0.2060316708 -0.2018246709 -0.1901856710 -0.1766306711 -0.1616876712 -0.1772356713 -0.1948986714 -0.2064816715 -0.2083796716 -0.2139246717 -0.2176556718 -0.2194576719 -0.2085736720 -0.2034886721 -0.1996836722 -0.1932956723 -0.1847136724 -0.1741496725 -0.1652256726 -0.1566196727 -0.1538056728 -0.1649076729 -0.1686906730 -0.1826796731 -0.1754066732 -0.1667476733 -0.1643296734 -0.1799596735 -0.1940326736 -0.1918856737 -0.1920556738 -0.1904206739 -0.1962116740 -0.1918876741 -0.1928906742 -0.1833106743 -0.1754806744 -0.1775506745 -0.1610826746 -0.1487056747 -0.1378556748 -0.1446416749 -0.1398356750 -0.1409936751 -0.1167036752 -0.1109196753 -0.1113616754 -0.0979366755 -0.0911376756 -0.0803896757 -0.0842966758 -0.0867746759 -0.0890606760 -0.0655846761 -0.0757286762 -0.0754926763 -0.0810966764 -0.0965686765 -0.1013486766 -0.0979546767 -0.0997316768 -0.1107256769 -0.1096836770 -0.1261796771 -0.1328546772 -0.1457526773 -0.1487096774 -0.1337626775 -0.1255436776 -0.1176036777 -0.1166546778 -0.1226916779 -0.1209896780 -0.0979796781 -0.1010016782 -0.1099766783 -0.1170186784 -0.1180296785 -0.1003146786 -0.0822626787 -0.0651066788 -0.0608116789 -0.0680716790 -0.0804476791 -0.0746036792 -0.0746376793 -0.0844676794 -0.1042326795 -0.1306746796 -0.1534556797 -0.1513906798 -0.1325586799 -0.1302986800 -0.1390736801 -0.1582306802 -0.1636686803 -0.1434576804 -0.1094306805 -0.1168186806 -0.1279196807 -0.1238826808 -0.1285906809 -0.1326686810 -0.1376236811 -0.1200836812 -0.1281326813 -0.1376926814 -0.1449276815 -0.1346176816 -0.1164816817 -0.1053986818 -0.1055196819 -0.1022566820 -0.1061436821 -0.1325906822 -0.1295506823 -0.1291286824 -0.1551796825 -0.1669306826 -0.1666596827 -0.1674726828 -0.1811876829 -0.1863566830 -0.1924046831 -0.1918726832 -0.2007646833 -0.1989306834 -0.1824776835 -0.1681546836 -0.1696696837 -0.1579206838 -0.1611036839 -0.1686996840 -0.1673326841 -0.1805106842 -0.1802906843 -0.1788766844 -0.1842106845 -0.1795846846 -0.1713166847 -0.1805156848 -0.1989746849 -0.2051846850 -0.2004786851 -0.2092916852 -0.2195086853 -0.2388616854 -0.2393526855 -0.2376436856 -0.2393846857 -0.2594476858 -0.2580416859 -0.2606926860 -0.2461026861 -0.2498856862 -0.2402186863 -0.2214286864 -0.2175746865 -0.2200476866 -0.2352396867 -0.2323026868 -0.2230356869 -0.2019006870 -0.2021696871 -0.2001876872 -0.2197316873 -0.2244166874 -0.1981286875 -0.1854236876 -0.1838706877 -0.1922876878 -0.2028606879 -0.2211286880 -0.2178376881 -0.2206676882 -0.2258796883 -0.2258956884 -0.2208706885 -0.2142836886 -0.2045976887 -0.2130226888 -0.2273886889 -0.2301696890 -0.2426236891 -0.2490706892 -0.2492416893 -0.2466976894 -0.2372656895 -0.2414446896 -0.2367476897 -0.2379396898 -0.2291616899 -0.2119186900 -0.1809246901 -0.1598446902 -0.1649296903 -0.1566046904 -0.1590386905 -0.1637336906 -0.1571916907 -0.1526686908 -0.1540526909 -0.1518806910 -0.1474796911 -0.1292326912 -0.1289296913 -0.1341826914 -0.1528486915 -0.1694376916 -0.1974466917 -0.2116036918 -0.2119836919 -0.2080046920 -0.2022806921 -0.1983646922 -0.1804016923 -0.1847206924 -0.1994146925 -0.1959426926 -0.1767996927 -0.1792706928 -0.1833156929 -0.1795736930 -0.1855026931 -0.1856256932 -0.1838826933 -0.1800166934 -0.1579966935 -0.1464036936 -0.1467636937 -0.1377846938 -0.1234746939 -0.1331386940 -0.1412456941 -0.1631836942 -0.1629246943 -0.1646406944 -0.1522926945 -0.1372436946 -0.1299376947 -0.1396676948 -0.1624486949 -0.1850236950 -0.1769976951 -0.1550656952 -0.1513486953 -0.1577696954 -0.1584486955 -0.1740856956 -0.2022766957 -0.2177406958 -0.2044446959 -0.1955986960 -0.1655356961 -0.1614736962 -0.1712006963 -0.1707016964 -0.1557716965 -0.1656446966 -0.1746816967 -0.1561466968 -0.1420836969 -0.1353216970 -0.1335886971 -0.1297436972 -0.1320816973 -0.1406996974 -0.1478766975 -0.1464346976 -0.1340526977 -0.1334826978 -0.1366736979 -0.1247696980 -0.1159966981 -0.1214396982 -0.1287396983 -0.1297386984 -0.1441006985 -0.1429576986 -0.1486006987 -0.1422616988 -0.1319906989 -0.1206596990 -0.1180676991 -0.1211626992 -0.1143386993 -0.1217896994 -0.1198806995 -0.1135076996 -0.1083976997 -0.1193356998 -0.1142766999 -0.1143597000 -0.1137897001 -0.1156227002 -0.1074657003 -0.1011257004 -0.1082307005 -0.1078787006 -0.1023267007 -0.0967737008 -0.0872357009 -0.0765487010 -0.1024707011 -0.1059087012 -0.0992187013 -0.0985607014 -0.1042807015 -0.0972667016 -0.0952637017 -0.0970937018 -0.1027757019 -0.1015277020 -0.0876557021 -0.1003217022 -0.0912457023 -0.1043357024 -0.1433047025 -0.1593007026 -0.1385967027 -0.1303597028 -0.1505307029 -0.1618247030 -0.1618447031 -0.1393197032 -0.1464157033 -0.1711147034 -0.1736097035 -0.1826817036 -0.1920217037 -0.1884677038 -0.2001267039 -0.2163717040 -0.2117157041 -0.2095727042 -0.2179257043 -0.2289377044 -0.2425377045 -0.2700347046 -0.2777847047 -0.2589507048 -0.2493797049 -0.2716037050 -0.2829767051 -0.2879247052 -0.3062917053 -0.3217457054 -0.3382067055 -0.3562497056 -0.3654527057 -0.3606407058 -0.3500167059 -0.3271497060 -0.2948327061 -0.2848197062 -0.2694577063 -0.2652667064 -0.2804907065 -0.2866797066 -0.2823287067 -0.2886277068 -0.3013287069 -0.3107597070 -0.3299757071 -0.3310427072 -0.3334147073 -0.3403787074 -0.3395157075 -0.3471437076 -0.3486847077 -0.3549297078 -0.3421657079 -0.3081637080 -0.2840127081 -0.2858257082 -0.3023407083 -0.3144597084 -0.3147687085 -0.3110797086 -0.2980497087 -0.3049107088 -0.3153407089 -0.3234817090 -0.3301127091 -0.3349627092 -0.3451207093 -0.3475147094 -0.3454147095 -0.3468987096 -0.3612427097 -0.3711947098 -0.3731067099 -0.3889047100 -0.3779157101 -0.3805377102 -0.3938227103 -0.4029777104 -0.3968587105 -0.3834857106 -0.3736487107 -0.3646207108 -0.3440347109 -0.3299047110 -0.3268167111 -0.3302647112 -0.3430797113 -0.3399437114 -0.2999077115 -0.2588787116 -0.2300267117 -0.2040647118 -0.1773787119 -0.1439967120 -0.0953927121 -0.0281487122 0.0604947123 0.1411407124 0.2087807125 0.2752717126 0.3457537127 0.4109277128 0.4871877129 0.5845827130 0.6746147131 0.7499027132 0.8437217133 0.8854967134 0.8762647135 0.8441817136 0.8161207137 0.7853867138 0.7195927139 0.6286937140 0.5371937141 0.4404867142 0.3373087143 0.2542517144 0.1742937145 0.0932897146 -0.0076277147 -0.1297657148 -0.2687537149 -0.3825777150 -0.4477847151 -0.4958207152 -0.5374807153 -0.5594177154 -0.5806647155 -0.5931167156 -0.5739297157 -0.5537957158 -0.5210597159 -0.5016857160 -0.4830527161 -0.4536247162 -0.4185057163 -0.3909437164 -0.3758177165 -0.3451597166 -0.3097707167 -0.2989507168 -0.3003797169 -0.3041587170 -0.3110027171 -0.3165667172 -0.3238787173 -0.3078237174 -0.3036467175 -0.3154117176 -0.3283797177 -0.3372727178 -0.3423837179 -0.3335397180 -0.3219137181 -0.3077047182 -0.2957247183 -0.2989237184 -0.3099077185 -0.3004947186 -0.2813467187 -0.2737167188 -0.2693417189 -0.2744737190 -0.2860697191 -0.3000907192 -0.3079057193 -0.2927467194 -0.2821717195 -0.3004967196 -0.3131487197 -0.3069117198 -0.2980277199 -0.2881657200 -0.2802407201 -0.2781257202 -0.2742557203 -0.2652017204 -0.2472177205 -0.2398327206 -0.2335107207 -0.2334197208 -0.2313297209 -0.2256457210 -0.2255797211 -0.2354297212 -0.2549557213 -0.2637897214 -0.2538707215 -0.2578377216 -0.2813497217 -0.2993057218 -0.3199437219 -0.3248027220 -0.3085627221 -0.3067687222 -0.2954797223 -0.2908617224 -0.2807847225 -0.2764417226 -0.2640417227 -0.2486057228 -0.2378727229 -0.2543327230 -0.2673917231 -0.2616317232 -0.2611547233 -0.2579707234 -0.2483897235 -0.2333847236 -0.2428817237 -0.2519567238 -0.2529217239 -0.2512787240 -0.2455707241 -0.2591167242 -0.2676797243 -0.2670967244 -0.2768937245 -0.2719407246 -0.2781777247 -0.2724197248 -0.2582917249 -0.2582637250 -0.2578187251 -0.2617007252 -0.2662447253 -0.2677397254 -0.2547977255 -0.2446867256 -0.2396027257 -0.2428407258 -0.2508597259 -0.2372367260 -0.2324997261 -0.2478807262 -0.2629837263 -0.2574287264 -0.2464927265 -0.2327807266 -0.2299737267 -0.2346597268 -0.2422817269 -0.2391917270 -0.2308217271 -0.2219387272 -0.2369657273 -0.2403417274 -0.2328787275 -0.2080727276 -0.2043587277 -0.2092597278 -0.2074347279 -0.2086147280 -0.2194267281 -0.2231337282 -0.2313067283 -0.2434727284 -0.2507587285 -0.2515867286 -0.2554287287 -0.2506607288 -0.2405237289 -0.2392017290 -0.2439987291 -0.2516067292 -0.2584347293 -0.2529667294 -0.2361087295 -0.2094977296 -0.1957387297 -0.1825417298 -0.1787547299 -0.1702807300 -0.1438857301 -0.1269307302 -0.1190357303 -0.1277237304 -0.1320717305 -0.1464057306 -0.1520647307 -0.1452717308 -0.1451087309 -0.1376027310 -0.1279237311 -0.1366597312 -0.1561537313 -0.1708637314 -0.1697137315 -0.1663957316 -0.1515997317 -0.1451457318 -0.1520007319 -0.1541857320 -0.1585777321 -0.1486297322 -0.1360327323 -0.1323497324 -0.1206727325 -0.1113097326 -0.1135687327 -0.1396167328 -0.1284717329 -0.0940907330 -0.0895707331 -0.1034317332 -0.1279577333 -0.1315567334 -0.1351107335 -0.1362857336 -0.1337547337 -0.1433287338 -0.1539797339 -0.1517437340 -0.1475247341 -0.1608127342 -0.1633407343 -0.1587287344 -0.1541297345 -0.1599187346 -0.1494667347 -0.1630057348 -0.1716007349 -0.1572497350 -0.1570677351 -0.1555757352 -0.1570297353 -0.1457887354 -0.1386667355 -0.1292387356 -0.1320767357 -0.1388847358 -0.1385337359 -0.1409697360 -0.1370337361 -0.1261777362 -0.1161367363 -0.1345657364 -0.1446867365 -0.1409757366 -0.1289297367 -0.1329197368 -0.1521527369 -0.1567557370 -0.1599517371 -0.1463327372 -0.1481877373 -0.1738597374 -0.2040987375 -0.2363777376 -0.2571317377 -0.2659047378 -0.2673997379 -0.2554007380 -0.2406067381 -0.2343677382 -0.2203557383 -0.2022187384 -0.1952247385 -0.1899507386 -0.1680317387 -0.1660097388 -0.1832757389 -0.1901367390 -0.1919767391 -0.2095147392 -0.2311197393 -0.2371607394 -0.2283587395 -0.2261027396 -0.2326957397 -0.2315197398 -0.2390917399 -0.2330147400 -0.2278177401 -0.2307097402 -0.2332737403 -0.2391117404 -0.2595077405 -0.2570997406 -0.2696347407 -0.2617997408 -0.2531567409 -0.2581867410 -0.2664417411 -0.2627777412 -0.2676647413 -0.2655227414 -0.2650737415 -0.2516567416 -0.2394827417 -0.2478107418 -0.2490117419 -0.2525377420 -0.2487797421 -0.2408297422 -0.2281837423 -0.2464037424 -0.2587647425 -0.2439377426 -0.2277347427 -0.2149307428 -0.2131887429 -0.1970927430 -0.2042897431 -0.2117137432 -0.1958927433 -0.1852797434 -0.1806057435 -0.1711957436 -0.1632277437 -0.1719147438 -0.1815787439 -0.1936217440 -0.2143897441 -0.2269427442 -0.2267527443 -0.2133747444 -0.2260827445 -0.2315607446 -0.2236317447 -0.2310777448 -0.2335607449 -0.2376527450 -0.2409797451 -0.2284477452 -0.2165517453 -0.2017147454 -0.2006437455 -0.2026547456 -0.2099387457 -0.2297417458 -0.2144427459 -0.2015237460 -0.1814227461 -0.1692947462 -0.1767067463 -0.1752787464 -0.2083317465 -0.2265547466 -0.2437357467 -0.2605827468 -0.2806477469 -0.2863677470 -0.2872137471 -0.2839367472 -0.2888867473 -0.2903757474 -0.2890427475 -0.2901867476 -0.2800437477 -0.2579637478 -0.2324787479 -0.2132627480 -0.1869637481 -0.1809497482 -0.1749787483 -0.1768227484 -0.1818957485 -0.1729127486 -0.1636107487 -0.1545787488 -0.1651857489 -0.1456377490 -0.1331517491 -0.1322237492 -0.1509727493 -0.1615267494 -0.1684067495 -0.1888697496 -0.2251967497 -0.2448577498 -0.2525807499 -0.2502837500 -0.2568947501 -0.2600667502 -0.2598157503 -0.2601277504 -0.2525617505 -0.2398957506 -0.2118417507 -0.1928747508 -0.1781757509 -0.1737027510 -0.1683887511 -0.1744347512 -0.1876847513 -0.1960347514 -0.2078407515 -0.2042787516 -0.1876297517 -0.1774597518 -0.1706657519 -0.1733997520 -0.1928567521 -0.1969707522 -0.1940277523 -0.1962437524 -0.2033497525 -0.2062217526 -0.1985917527 -0.2008767528 -0.2001277529 -0.1901127530 -0.1835367531 -0.1763547532 -0.1761717533 -0.1826687534 -0.1880267535 -0.1853077536 -0.1687437537 -0.1619137538 -0.1537927539 -0.1306597540 -0.1158807541 -0.1015797542 -0.0842407543 -0.0802677544 -0.0775547545 -0.0831037546 -0.0947277547 -0.1008747548 -0.0885797549 -0.1115547550 -0.1264097551 -0.1289797552 -0.1427317553 -0.1552037554 -0.1544407555 -0.1533797556 -0.1541457557 -0.1562377558 -0.1525747559 -0.1614097560 -0.1501147561 -0.1388457562 -0.1241447563 -0.1224987564 -0.1219047565 -0.1214807566 -0.1191717567 -0.1155577568 -0.1218027569 -0.1157337570 -0.1100567571 -0.1166737572 -0.1190817573 -0.1088017574 -0.1058187575 -0.1149587576 -0.1181997577 -0.1188567578 -0.1136447579 -0.1126117580 -0.1189287581 -0.1525897582 -0.1660167583 -0.1716397584 -0.1854707585 -0.1987257586 -0.2055127587 -0.2066427588 -0.2175517589 -0.2443617590 -0.2680667591 -0.2768297592 -0.2863447593 -0.2922557594 -0.2945737595 -0.2900517596 -0.2924897597 -0.3089437598 -0.3158077599 -0.3067627600 -0.3166167601 -0.3250237602 -0.3281377603 -0.3222107604 -0.3111867605 -0.3143307606 -0.3099227607 -0.2990457608 -0.3014907609 -0.3157857610 -0.2993427611 -0.2967087612 -0.3079037613 -0.2967987614 -0.2835147615 -0.2847837616 -0.3062597617 -0.3147297618 -0.3262237619 -0.3300037620 -0.3324337621 -0.3447487622 -0.3427387623 -0.3303877624 -0.3194947625 -0.3093077626 -0.2982277627 -0.3035787628 -0.3054947629 -0.2909147630 -0.2856907631 -0.2948017632 -0.3026457633 -0.3093877634 -0.3193277635 -0.3372437636 -0.3447067637 -0.3482997638 -0.3517507639 -0.3439467640 -0.3428457641 -0.3632777642 -0.3766737643 -0.3867267644 -0.3890467645 -0.3988077646 -0.3944527647 -0.3934587648 -0.3962017649 -0.3859287650 -0.3688367651 -0.3542557652 -0.3589047653 -0.3472157654 -0.3316757655 -0.3211627656 -0.3092487657 -0.2904267658 -0.2922537659 -0.2753837660 -0.2415017661 -0.2171567662 -0.1815047663 -0.1300097664 -0.0700957665 -0.0128227666 0.0394127667 0.1131007668 0.1837717669 0.2320287670 0.2954867671 0.3686097672 0.4304647673 0.4964247674 0.5618297675 0.6256697676 0.6942877677 0.7691507678 0.8307167679 0.8463837680 0.8545567681 0.8328107682 0.7981287683 0.7472037684 0.7047647685 0.6519007686 0.5703467687 0.4507037688 0.3325827689 0.2286327690 0.1404807691 0.0425647692 -0.0741117693 -0.2022737694 -0.3347107695 -0.4245897696 -0.4777377697 -0.4968617698 -0.5056757699 -0.5129327700 -0.5243437701 -0.5424057702 -0.5461567703 -0.5348647704 -0.5157007705 -0.4794227706 -0.4400917707 -0.4148677708 -0.4198917709 -0.4262677710 -0.4081527711 -0.3949447712 -0.3795357713 -0.3546347714 -0.3330957715 -0.3242387716 -0.3181177717 -0.3137267718 -0.3150977719 -0.3113057720 -0.3163627721 -0.3370137722 -0.3564627723 -0.3780457724 -0.3888977725 -0.3916277726 -0.3680577727 -0.3390267728 -0.3243097729 -0.3146267730 -0.3197717731 -0.3368327732 -0.3544847733 -0.3373227734 -0.3262077735 -0.3265877736 -0.3407617737 -0.3440557738 -0.3568987739 -0.3647897740 -0.3741457741 -0.3720707742 -0.3740357743 -0.3915377744 -0.3917377745 -0.3811447746 -0.3693507747 -0.3648677748 -0.3470627749 -0.3262177750 -0.2876917751 -0.2721857752 -0.2760697753 -0.2637467754 -0.2640167755 -0.2744037756 -0.2934087757 -0.3086717758 -0.3210097759 -0.3243467760 -0.3335287761 -0.3320427762 -0.3196667763 -0.3160977764 -0.3085807765 -0.3155767766 -0.3225137767 -0.3096347768 -0.2999657769 -0.2874077770 -0.2809367771 -0.2929017772 -0.3033887773 -0.3086037774 -0.2972567775 -0.3028897776 -0.3161307777 -0.3008297778 -0.2940837779 -0.2861357780 -0.2841537781 -0.2799247782 -0.2654787783 -0.2606907784 -0.2648957785 -0.2645557786 -0.2770117787 -0.2903467788 -0.2833697789 -0.2977307790 -0.3021477791 -0.3127287792 -0.3253557793 -0.3360877794 -0.3255537795 -0.3152857796 -0.3039647797 -0.2955537798 -0.2753027799 -0.2576337800 -0.2458967801 -0.2440477802 -0.2402597803 -0.2345107804 -0.2341927805 -0.2257807806 -0.2185867807 -0.2246297808 -0.2306347809 -0.2381547810 -0.2478097811 -0.2476207812 -0.2493917813 -0.2411297814 -0.2434297815 -0.2458107816 -0.2309597817 -0.2108537818 -0.2027677819 -0.1971417820 -0.1893497821 -0.1633617822 -0.1633587823 -0.1853257824 -0.1806607825 -0.1758417826 -0.1841947827 -0.1937547828 -0.1952757829 -0.2063497830 -0.1956467831 -0.1912407832 -0.1689867833 -0.1609347834 -0.1677077835 -0.1788307836 -0.1809697837 -0.1820557838 -0.1672897839 -0.1550197840 -0.1685137841 -0.1916357842 -0.1844647843 -0.1749047844 -0.1703007845 -0.1611187846 -0.1607057847 -0.1731687848 -0.1573637849 -0.1550127850 -0.1549317851 -0.1453417852 -0.1262367853 -0.1017727854 -0.0846417855 -0.0923887856 -0.1036467857 -0.1142647858 -0.1133207859 -0.1070087860 -0.1024237861 -0.1032587862 -0.1014437863 -0.1247637864 -0.1324917865 -0.1070737866 -0.0778967867 -0.0811547868 -0.0958387869 -0.1118317870 -0.1181267871 -0.1231177872 -0.1269477873 -0.1218887874 -0.1246977875 -0.1409317876 -0.1571807877 -0.1652037878 -0.1499477879 -0.1294527880 -0.1266507881 -0.1290767882 -0.1485267883 -0.1526867884 -0.1367797885 -0.1112457886 -0.0935167887 -0.0838747888 -0.0814257889 -0.1121927890 -0.1173067891 -0.1132877892 -0.1283877893 -0.1229467894 -0.1257567895 -0.1263667896 -0.1233227897 -0.1203027898 -0.1261527899 -0.1307977900 -0.1290617901 -0.1323857902 -0.1204967903 -0.1010467904 -0.1012517905 -0.1115867906 -0.1295417907 -0.1434737908 -0.1445757909 -0.1349507910 -0.1237997911 -0.1396867912 -0.1788787913 -0.1777047914 -0.1689167915 -0.1420057916 -0.1474457917 -0.1728447918 -0.1909857919 -0.1997527920 -0.2019527921 -0.2010367922 -0.1607747923 -0.1368817924 -0.1486547925 -0.1626537926 -0.1644477927 -0.1624577928 -0.1639087929 -0.1749087930 -0.1766217931 -0.1735457932 -0.1658517933 -0.1497577934 -0.1378987935 -0.1276557936 -0.1214157937 -0.1427337938 -0.1603827939 -0.1722837940 -0.1853207941 -0.1950637942 -0.1814257943 -0.1962767944 -0.1950667945 -0.1844837946 -0.1901877947 -0.2006427948 -0.2150597949 -0.2114747950 -0.2189297951 -0.2457627952 -0.2599627953 -0.2575587954 -0.2470147955 -0.2295757956 -0.2315417957 -0.2364437958 -0.2370927959 -0.2355087960 -0.2347277961 -0.2305117962 -0.2189747963 -0.2161857964 -0.2257697965 -0.2305397966 -0.2202277967 -0.2113037968 -0.2069217969 -0.2130037970 -0.2104317971 -0.2033547972 -0.2115597973 -0.2108887974 -0.2176437975 -0.2249537976 -0.2270627977 -0.2155047978 -0.2191537979 -0.2201487980 -0.2096807981 -0.2036867982 -0.1904637983 -0.1822447984 -0.1827887985 -0.1950047986 -0.2006647987 -0.2002267988 -0.2047847989 -0.2241497990 -0.2230697991 -0.2135387992 -0.1951927993 -0.1837377994 -0.1753697995 -0.1711547996 -0.1813167997 -0.2014147998 -0.2123897999 -0.1884768000 -0.1729838001 -0.1699698002 -0.1718448003 -0.1829398004 -0.1910748005 -0.2071868006 -0.1970378007 -0.1970398008 -0.1862118009 -0.1862768010 -0.1978838011 -0.1929378012 -0.2030058013 -0.1997518014 -0.2073638015 -0.2389308016 -0.2487268017 -0.2363878018 -0.2229358019 -0.2266878020 -0.2230168021 -0.2040268022 -0.1981398023 -0.2096678024 -0.2223828025 -0.2271448026 -0.2136248027 -0.1981398028 -0.1836238029 -0.1837358030 -0.1830898031 -0.1855998032 -0.1908738033 -0.1866538034 -0.1892328035 -0.1958218036 -0.2128178037 -0.2119638038 -0.2143658039 -0.2143848040 -0.2073948041 -0.1974518042 -0.1728868043 -0.1658818044 -0.1680568045 -0.1621108046 -0.1495638047 -0.1586108048 -0.1561038049 -0.1476778050 -0.1539808051 -0.1670128052 -0.1745208053 -0.1684178054 -0.1491888055 -0.1342308056 -0.1421078057 -0.1646858058 -0.1991418059 -0.1878418060 -0.1861018061 -0.1898578062 -0.1952758063 -0.2183408064 -0.2304638065 -0.2261488066 -0.2387498067 -0.2483438068 -0.2457248069 -0.2405318070 -0.2294838071 -0.2327098072 -0.2421288073 -0.2338548074 -0.2285758075 -0.2118828076 -0.1984988077 -0.1763988078 -0.1548148079 -0.1321018080 -0.1155068081 -0.1128408082 -0.1121068083 -0.1211048084 -0.1230548085 -0.1122908086 -0.1140248087 -0.1042368088 -0.1136808089 -0.1200088090 -0.1120028091 -0.1218988092 -0.1257518093 -0.1318298094 -0.1449738095 -0.1669108096 -0.1684708097 -0.1417018098 -0.1278638099 -0.1372998100 -0.1532078101 -0.1553228102 -0.1315518103 -0.1295888104 -0.1325578105 -0.1547018106 -0.1411678107 -0.1158948108 -0.1056198109 -0.1120028110 -0.1198548111 -0.1254548112 -0.1289038113 -0.1145128114 -0.1071608115 -0.1206008116 -0.1256738117 -0.1184308118 -0.1041248119 -0.0850908120 -0.0925238121 -0.1261628122 -0.1259338123 -0.1195598124 -0.1342068125 -0.1321688126 -0.1106398127 -0.1096018128 -0.1318158129 -0.1629438130 -0.1797698131 -0.1945108132 -0.2071798133 -0.2219768134 -0.2236538135 -0.2338368136 -0.2432598137 -0.2518908138 -0.2529408139 -0.2287548140 -0.2265858141 -0.2502868142 -0.2839368143 -0.3114488144 -0.3201908145 -0.3206508146 -0.3181978147 -0.3089358148 -0.3076898149 -0.3081118150 -0.3028978151 -0.3041038152 -0.3155258153 -0.3211038154 -0.3213148155 -0.3295228156 -0.3442358157 -0.3492588158 -0.3537258159 -0.3439938160 -0.3354278161 -0.3320768162 -0.3142908163 -0.3142968164 -0.3077938165 -0.2935838166 -0.2812988167 -0.2872288168 -0.2982888169 -0.3001118170 -0.3012688171 -0.2935938172 -0.2885828173 -0.2898258174 -0.3014398175 -0.3004458176 -0.3090618177 -0.3188898178 -0.3149628179 -0.2996488180 -0.2964388181 -0.3016098182 -0.3158188183 -0.3196538184 -0.3131878185 -0.3075818186 -0.3127718187 -0.3212748188 -0.3201238189 -0.3389568190 -0.3422378191 -0.3335908192 -0.3282188193 -0.3373638194 -0.3447718195 -0.3591058196 -0.3942768197 -0.3976558198 -0.3981388199 -0.4020708200 -0.4050238201 -0.3954548202 -0.3742778203 -0.3743898204 -0.3761978205 -0.3591848206 -0.3455718207 -0.3400918208 -0.3299168209 -0.3207278210 -0.3089398211 -0.3060418212 -0.3030348213 -0.2789188214 -0.2611728215 -0.2421998216 -0.2196768217 -0.1727878218 -0.1143018219 -0.0505088220 0.0030088221 0.0697128222 0.1285578223 0.1744778224 0.2348808225 0.3100928226 0.3777208227 0.4408858228 0.5123118229 0.5862538230 0.6662818231 0.7369308232 0.7952608233 0.8383608234 0.8388518235 0.8284398236 0.7975488237 0.7590908238 0.7123748239 0.6631758240 0.5919558241 0.5102078242 0.4168998243 0.3149678244 0.2198078245 0.1397298246 0.0443138247 -0.0433588248 -0.1546108249 -0.2712478250 -0.3537748251 -0.4057408252 -0.4621768253 -0.4980848254 -0.5329278255 -0.5430738256 -0.5141478257 -0.4892578258 -0.4770818259 -0.4397908260 -0.4128328261 -0.3885848262 -0.3879218263 -0.3757338264 -0.3564438265 -0.3335808266 -0.3214318267 -0.3288248268 -0.3190588269 -0.3299768270 -0.3181898271 -0.3154178272 -0.3209118273 -0.3099278274 -0.2941958275 -0.2903348276 -0.3081808277 -0.3189928278 -0.3275148279 -0.3238948280 -0.3274618281 -0.3303878282 -0.3252708283 -0.3166748284 -0.3086868285 -0.2925058286 -0.2741438287 -0.2702278288 -0.2759538289 -0.2931748290 -0.2986268291 -0.3042598292 -0.3016438293 -0.3024138294 -0.3146988295 -0.3274998296 -0.3309828297 -0.3126488298 -0.3013698299 -0.2992948300 -0.2976208301 -0.2882678302 -0.2834858303 -0.2874288304 -0.2877428305 -0.2592128306 -0.2234898307 -0.2249398308 -0.2026158309 -0.2023698310 -0.2010688311 -0.2109208312 -0.2238588313 -0.2279388314 -0.2397378315 -0.2406868316 -0.2613118317 -0.2813818318 -0.2819108319 -0.2730488320 -0.2778608321 -0.2840128322 -0.2714048323 -0.2717808324 -0.2563558325 -0.2515038326 -0.2585298327 -0.2655448328 -0.2514698329 -0.2461498330 -0.2345748331 -0.2411858332 -0.2382338333 -0.2301488334 -0.2298958335 -0.2312718336 -0.2491148337 -0.2634158338 -0.2633098339 -0.2509588340 -0.2493258341 -0.2458768342 -0.2362378343 -0.2438358344 -0.2475608345 -0.2494808346 -0.2466468347 -0.2469898348 -0.2533368349 -0.2595288350 -0.2506418351 -0.2312758352 -0.2258958353 -0.2151768354 -0.2283358355 -0.2433968356 -0.2473828357 -0.2444118358 -0.2476848359 -0.2433588360 -0.2463388361 -0.2359848362 -0.2357788363 -0.2329838364 -0.2303248365 -0.2217168366 -0.2280868367 -0.2412758368 -0.2480598369 -0.2502718370 -0.2370118371 -0.2249398372 -0.2185968373 -0.2067468374 -0.1986968375 -0.1965538376 -0.1914168377 -0.1834638378 -0.1699358379 -0.1570178380 -0.1596228381 -0.1611078382 -0.1489458383 -0.1583838384 -0.1681278385 -0.1640768386 -0.1711328387 -0.1811138388 -0.1887658389 -0.2038788390 -0.2115078391 -0.2122528392 -0.1985928393 -0.1832298394 -0.1674098395 -0.1571968396 -0.1596638397 -0.1549868398 -0.1604348399 -0.1582468400 -0.1674198401 -0.1634158402 -0.1498338403 -0.1540518404 -0.1468978405 -0.1263728406 -0.1254478407 -0.1239648408 -0.1126458409 -0.1132148410 -0.1186088411 -0.1172788412 -0.1135268413 -0.1078688414 -0.0933798415 -0.0839778416 -0.0946358417 -0.0934848418 -0.0978108419 -0.0939348420 -0.1049958421 -0.1066468422 -0.0947048423 -0.0967738424 -0.0878968425 -0.0902488426 -0.0929218427 -0.1078108428 -0.1176158429 -0.1239578430 -0.1196098431 -0.1208038432 -0.1195968433 -0.0962578434 -0.0836268435 -0.1034368436 -0.1145348437 -0.0930028438 -0.0961618439 -0.1024458440 -0.1151718441 -0.1102228442 -0.1036718443 -0.0953798444 -0.0886198445 -0.0657508446 -0.0439808447 -0.0352438448 -0.0421948449 -0.0703358450 -0.0762528451 -0.0879478452 -0.1052238453 -0.1200988454 -0.1211988455 -0.1220898456 -0.1295218457 -0.1235608458 -0.1375848459 -0.1421618460 -0.1407968461 -0.1255948462 -0.1168588463 -0.1066708464 -0.0984878465 -0.0987958466 -0.1048658467 -0.1126228468 -0.1206448469 -0.1303018470 -0.1260058471 -0.1315638472 -0.1425838473 -0.1429108474 -0.1370348475 -0.1384368476 -0.1538438477 -0.1553528478 -0.1404318479 -0.1157738480 -0.1250368481 -0.1364828482 -0.1465658483 -0.1594858484 -0.1707778485 -0.1669618486 -0.1652918487 -0.1656308488 -0.1664648489 -0.1770448490 -0.1736598491 -0.1720018492 -0.1715908493 -0.1762158494 -0.1743468495 -0.1674888496 -0.1624248497 -0.1553378498 -0.1557928499 -0.1625808500 -0.1754488501 -0.1867238502 -0.1928898503 -0.1981388504 -0.1859648505 -0.1748128506 -0.1698398507 -0.1748088508 -0.1761008509 -0.1948898510 -0.2074108511 -0.2053428512 -0.2002328513 -0.2039348514 -0.2090218515 -0.2091218516 -0.2071478517 -0.2114058518 -0.2115598519 -0.2104658520 -0.2198838521 -0.2201058522 -0.2035298523 -0.1982268524 -0.1955338525 -0.1857328526 -0.1698258527 -0.1754388528 -0.1888658529 -0.2072388530 -0.2028158531 -0.2073528532 -0.2085298533 -0.2183688534 -0.2136368535 -0.2161528536 -0.2210038537 -0.2246278538 -0.2287708539 -0.2163008540 -0.2229288541 -0.2128318542 -0.1982418543 -0.1950278544 -0.1903138545 -0.1981748546 -0.2154348547 -0.2215918548 -0.2148728549 -0.2124178550 -0.1985598551 -0.1931968552 -0.1921938553 -0.1797938554 -0.1729878555 -0.1818058556 -0.1735068557 -0.1726448558 -0.1730118559 -0.1734488560 -0.1935688561 -0.2133938562 -0.2129548563 -0.2118988564 -0.1971258565 -0.1825138566 -0.1767358567 -0.1831988568 -0.1801048569 -0.1726418570 -0.1652528571 -0.1660008572 -0.1749488573 -0.1725508574 -0.1759978575 -0.1834878576 -0.1904018577 -0.1773588578 -0.1581458579 -0.1475438580 -0.1570438581 -0.1545078582 -0.1477838583 -0.1443318584 -0.1308858585 -0.1371908586 -0.1558348587 -0.1421948588 -0.1265028589 -0.1420258590 -0.1493308591 -0.1566298592 -0.1641448593 -0.1724818594 -0.1869578595 -0.1978588596 -0.2166098597 -0.2198218598 -0.2052298599 -0.1955228600 -0.1860758601 -0.1606178602 -0.1508678603 -0.1521758604 -0.1631978605 -0.1656318606 -0.1720648607 -0.1899128608 -0.2014818609 -0.1961338610 -0.1825468611 -0.1730378612 -0.1679218613 -0.1518718614 -0.1462388615 -0.1493098616 -0.1564678617 -0.1682578618 -0.1703238619 -0.1572558620 -0.1563328621 -0.1592018622 -0.1735298623 -0.1786458624 -0.1852208625 -0.2070058626 -0.2206658627 -0.2257168628 -0.2245668629 -0.2226758630 -0.2207978631 -0.2152978632 -0.2145028633 -0.2030548634 -0.1982398635 -0.1902488636 -0.1823528637 -0.1749738638 -0.1736448639 -0.1768638640 -0.1878558641 -0.1942548642 -0.1877558643 -0.1917588644 -0.1970398645 -0.1934838646 -0.1778998647 -0.1659418648 -0.1441398649 -0.1460368650 -0.1604288651 -0.1756678652 -0.1720158653 -0.1740058654 -0.1867768655 -0.1963518656 -0.2058298657 -0.2114788658 -0.2107068659 -0.1939388660 -0.1883758661 -0.1856928662 -0.1856818663 -0.1838878664 -0.1752658665 -0.1818908666 -0.1887558667 -0.1916728668 -0.1932868669 -0.1952018670 -0.1982108671 -0.2066068672 -0.2085348673 -0.1963698674 -0.1950628675 -0.2024438676 -0.2094298677 -0.1961368678 -0.1918708679 -0.1870018680 -0.1847428681 -0.1608358682 -0.1471908683 -0.1475088684 -0.1609248685 -0.1656978686 -0.1549928687 -0.1647638688 -0.1737528689 -0.1676148690 -0.1631348691 -0.1685458692 -0.1718868693 -0.1653898694 -0.1618428695 -0.1709058696 -0.1913388697 -0.2071218698 -0.1914668699 -0.1786968700 -0.1880208701 -0.1752298702 -0.1683218703 -0.1631208704 -0.1588988705 -0.1460598706 -0.1299048707 -0.1265028708 -0.1226848709 -0.1161538710 -0.1117098711 -0.1095598712 -0.0976848713 -0.0922338714 -0.0938958715 -0.1082228716 -0.1098668717 -0.0947128718 -0.0798898719 -0.0676608720 -0.0572018721 -0.0362878722 -0.0329298723 -0.0309818724 -0.0217668725 -0.0117538726 -0.0183198727 -0.0416128728 -0.0565468729 -0.0729018730 -0.0715458731 -0.0727418732 -0.0765138733 -0.0750278734 -0.0689708735 -0.0718708736 -0.0663318737 -0.0561758738 -0.0584478739 -0.0713178740 -0.0858648741 -0.0937718742 -0.0989668743 -0.0972398744 -0.1118738745 -0.1333268746 -0.1469948747 -0.1690778748 -0.1745708749 -0.1933578750 -0.1984268751 -0.2061708752 -0.2167358753 -0.2263998754 -0.2439358755 -0.2549198756 -0.2739688757 -0.2928628758 -0.2845678759 -0.2711278760 -0.2794628761 -0.2930818762 -0.3037338763 -0.2990438764 -0.2941618765 -0.2834608766 -0.2843098767 -0.2809448768 -0.2724578769 -0.2608888770 -0.2514278771 -0.2406938772 -0.2370628773 -0.2370278774 -0.2375338775 -0.2562758776 -0.2719108777 -0.2881838778 -0.3019468779 -0.3030638780 -0.3102238781 -0.3226698782 -0.3238828783 -0.3172378784 -0.3056788785 -0.2834348786 -0.2638128787 -0.2630738788 -0.2724218789 -0.2740838790 -0.2614958791 -0.2635598792 -0.2609488793 -0.2544308794 -0.2651858795 -0.2830728796 -0.2988328797 -0.2962068798 -0.2879448799 -0.2957298800 -0.3139988801 -0.3177008802 -0.3180038803 -0.3179868804 -0.3203408805 -0.3111098806 -0.3154998807 -0.3257698808 -0.3452098809 -0.3562258810 -0.3564988811 -0.3552218812 -0.3413728813 -0.3240168814 -0.3085878815 -0.2891358816 -0.2685138817 -0.2584788818 -0.2557098819 -0.2577318820 -0.2467608821 -0.2134818822 -0.1647758823 -0.1274468824 -0.0919408825 -0.0601128826 -0.0130508827 0.0370268828 0.1067788829 0.1736788830 0.2398568831 0.2958908832 0.3645498833 0.4485198834 0.5301428835 0.6111878836 0.7006868837 0.7988358838 0.8969768839 0.9656768840 0.9748618841 0.9700318842 0.9685078843 0.9476898844 0.8973198845 0.8396958846 0.7858398847 0.7075858848 0.6095978849 0.4972978850 0.3927258851 0.2863328852 0.1967458853 0.1105018854 0.0018058855 -0.1276938856 -0.2610538857 -0.3701448858 -0.4356488859 -0.4589978860 -0.4662298861 -0.4717858862 -0.4822758863 -0.4802128864 -0.4757698865 -0.4705688866 -0.4495148867 -0.4407078868 -0.4314328869 -0.4122288870 -0.3730298871 -0.3393688872 -0.3086208873 -0.2862588874 -0.2901038875 -0.2985458876 -0.3066968877 -0.2944888878 -0.2986778879 -0.2807778880 -0.2749138881 -0.2716098882 -0.2735478883 -0.2873028884 -0.2950848885 -0.2945248886 -0.2905028887 -0.2750578888 -0.2593838889 -0.2698958890 -0.2603858891 -0.2602358892 -0.2626728893 -0.2610418894 -0.2610698895 -0.2650918896 -0.2522218897 -0.2384438898 -0.2486238899 -0.2484288900 -0.2601728901 -0.2705918902 -0.2745758903 